SpectraSuite Data File
++++++++++++++++++++++++++++++++++++
Date: Tue Jun 13 12:03:49 CEST 2017
User: INFO_000
Dark Spectrum Present: No
Reference Spectrum Present: No
Number of Sampled Component Spectra: 1
Spectrometers: USB4H00879
Integration Time (usec): 30000 (USB4H00879)
Spectra Averaged: 1 (USB4H00879)
Boxcar Smoothing: 0 (USB4H00879)
Correct for Electrical Dark: No (USB4H00879)
Strobe/Lamp Enabled: No (USB4H00879)
Correct for Detector Non-linearity: No (USB4H00879)
Correct for Stray Light: No (USB4H00879)
Number of Pixels in Processed Spectrum: 3648
>>>>>Begin Processed Spectral Data<<<<<
345.13	1390.57
345.34	1390.57
345.56	1390.57
345.78	1351.66
345.99	1339.37
346.21	1472.49
346.42	1570.79
346.64	1538.02
346.86	1607.66
347.07	1576.94
347.29	1531.88
347.50	1525.74
347.72	1492.97
347.94	1542.12
348.15	1533.93
348.37	1519.59
348.59	1535.98
348.80	1466.35
349.02	1558.50
349.23	1636.33
349.45	1593.32
349.67	1621.99
349.88	1642.47
350.10	1685.48
350.31	1652.71
350.53	1556.46
350.75	1652.71
350.96	1648.61
351.18	1685.48
351.39	1640.42
351.61	1556.46
351.82	1638.38
352.04	1660.90
352.26	1632.23
352.47	1636.33
352.69	1681.38
352.90	1646.57
353.12	1585.13
353.34	1632.23
353.55	1681.38
353.77	1599.46
353.98	1646.57
354.20	1644.52
354.41	1650.66
354.63	1673.19
354.85	1689.57
355.06	1634.28
355.28	1648.61
355.49	1693.67
355.71	1648.61
355.92	1683.43
356.14	1640.42
356.35	1693.67
356.57	1570.79
356.79	1652.71
357.00	1718.25
357.22	1648.61
357.43	1693.67
357.65	1746.92
357.86	1660.90
358.08	1626.09
358.29	1650.66
358.51	1634.28
358.72	1675.24
358.94	1712.10
359.16	1685.48
359.37	1699.81
359.59	1726.44
359.80	1695.72
360.02	1730.53
360.23	1693.67
360.45	1720.29
360.66	1671.14
360.88	1693.67
361.09	1648.61
361.31	1783.78
361.52	1697.77
361.74	1804.26
361.95	1775.59
362.17	1681.38
362.38	1712.10
362.60	1712.10
362.81	1740.77
363.03	1677.29
363.24	1720.29
363.46	1734.63
363.67	1738.73
363.89	1679.33
364.10	1738.73
364.32	1640.42
364.53	1695.72
364.75	1613.80
364.96	1748.97
365.18	1740.77
365.39	1726.44
365.61	1683.43
365.82	1720.29
366.04	1748.97
366.25	1638.38
366.47	1730.53
366.68	1787.88
366.90	1652.71
367.11	1695.72
367.33	1783.78
367.54	1746.92
367.76	1748.97
367.97	1787.88
368.19	1734.63
368.40	1804.26
368.62	1724.39
368.83	1757.16
369.05	1744.87
369.26	1726.44
369.48	1755.11
369.69	1728.49
369.91	1705.96
370.12	1703.91
370.33	1738.73
370.55	1771.49
370.76	1785.83
370.98	1845.22
371.19	1804.26
371.41	1818.60
371.62	1843.17
371.84	1738.73
372.05	1865.70
372.27	1806.31
372.48	1820.64
372.69	1769.44
372.91	1865.70
373.12	1886.18
373.34	1837.03
373.55	1843.17
373.77	1820.64
373.98	1896.42
374.20	1896.42
374.41	1859.56
374.62	1796.07
374.84	1826.79
375.05	1898.47
375.27	1849.32
375.48	1853.41
375.70	1904.61
375.91	1900.52
376.12	1951.71
376.34	1832.93
376.55	1920.99
376.77	1923.04
376.98	1810.40
377.19	1820.64
377.41	1863.65
377.62	1875.94
377.84	1964.00
378.05	1974.24
378.27	1910.75
378.48	1947.62
378.69	1996.77
378.91	1871.84
379.12	1966.05
379.34	1994.72
379.55	1974.24
379.76	1935.33
379.98	1904.61
380.19	1974.24
380.41	1990.63
380.62	1918.95
380.83	1937.38
381.05	1898.47
381.26	2035.68
381.47	1978.34
381.69	1933.28
381.90	2142.18
382.12	1996.77
382.33	1978.34
382.54	1927.14
382.76	2013.15
382.97	1933.28
383.19	1953.76
383.40	2105.31
383.61	2021.35
383.83	1978.34
384.04	1982.43
384.25	2033.63
384.47	1996.77
384.68	2090.98
384.89	1984.48
385.11	1996.77
385.32	1980.39
385.54	2146.27
385.75	2039.78
385.96	2033.63
386.18	2181.09
386.39	2111.46
386.60	2037.73
386.82	2084.83
387.03	2170.85
387.24	2101.22
387.46	2176.99
387.67	2176.99
387.88	2117.60
388.10	2066.40
388.31	2193.37
388.52	2211.81
388.74	2170.85
388.95	2125.79
389.16	2197.47
389.38	2211.81
389.59	2162.66
389.80	2244.57
390.02	2181.09
390.23	2220.00
390.44	2156.51
390.66	2295.77
390.87	2222.05
391.08	2258.91
391.30	2281.44
391.51	2293.72
391.72	2324.44
391.94	2353.12
392.15	2320.35
392.36	2230.24
392.58	2256.86
392.79	2273.25
393.00	2306.01
393.22	2277.34
393.43	2412.51
393.64	2346.97
393.85	2420.70
394.07	2349.02
394.28	2291.68
394.49	2484.19
394.71	2451.42
394.92	2471.90
395.13	2297.82
395.35	2324.44
395.56	2355.16
395.77	2441.18
395.98	2367.45
396.20	2486.23
396.41	2478.04
396.62	2461.66
396.84	2412.51
397.05	2394.08
397.26	2473.95
397.47	2564.06
397.69	2371.55
397.90	2551.77
398.11	2500.57
398.32	2510.81
398.54	2529.24
398.75	2494.43
398.96	2598.87
399.18	2648.02
399.39	2641.88
399.60	2605.02
399.81	2582.49
400.03	2504.67
400.24	2768.85
400.45	2592.73
400.66	2639.83
400.88	2637.78
401.09	2729.94
401.30	2670.55
401.51	2643.93
401.73	2717.65
401.94	2686.94
402.15	2818.00
402.36	2709.46
402.58	2768.85
402.79	2701.27
403.00	2725.85
403.21	2752.47
403.43	2793.43
403.64	2770.90
403.85	2744.28
404.06	2781.14
404.27	2779.09
404.49	2803.67
404.70	2869.20
404.91	2811.86
405.12	2848.72
405.34	2768.85
405.55	2893.78
405.76	2783.19
405.97	2783.19
406.19	2865.11
406.40	2764.76
406.61	2832.34
406.82	2938.84
407.03	2932.69
407.25	2873.30
407.46	2947.03
407.67	2963.41
407.88	2953.17
408.09	2930.64
408.31	2887.64
408.52	3010.51
408.73	2963.41
408.94	2942.93
409.15	2998.23
409.37	3033.04
409.58	2987.99
409.79	3106.77
410.00	3018.71
410.21	3074.00
410.43	3069.91
410.64	3006.42
410.85	3125.20
411.06	3092.43
411.27	3129.30
411.48	3188.69
411.70	3061.71
411.91	3002.32
412.12	3162.06
412.33	3104.72
412.54	3078.10
412.76	3299.28
412.97	3123.15
413.18	3065.81
413.39	3129.30
413.60	3094.48
413.81	3180.50
414.03	3217.36
414.24	3198.93
414.45	3291.09
414.66	3229.65
414.87	3237.84
415.08	3311.57
415.30	3346.38
415.51	3344.33
415.72	3149.78
415.93	3293.13
416.14	3241.93
416.35	3350.48
416.56	3248.08
416.78	3452.88
416.99	3360.72
417.20	3321.81
417.41	3319.76
417.62	3403.72
417.83	3446.73
418.04	3377.10
418.26	3418.06
418.47	3342.28
418.68	3411.92
418.89	3479.50
419.10	3471.31
419.31	3549.13
419.52	3549.13
419.73	3581.90
419.95	3598.28
420.16	3534.79
420.37	3485.64
420.58	3569.61
420.79	3471.31
421.00	3639.24
421.21	3624.90
421.42	3545.03
421.63	3674.06
421.85	3690.44
422.06	3694.54
422.27	3649.48
422.48	3784.65
422.69	3729.35
422.90	3659.72
423.11	3735.50
423.32	3643.34
423.53	3782.60
423.75	3704.78
423.96	3895.24
424.17	3895.24
424.38	3948.48
424.59	3997.64
424.80	4020.16
425.01	3874.76
425.22	3864.52
425.43	3878.85
425.64	4128.70
425.85	4065.22
426.06	3985.35
426.28	4022.21
426.49	3977.16
426.70	4028.35
426.91	4114.37
427.12	4169.66
427.33	4161.47
427.54	4007.87
427.75	4149.18
427.96	4243.39
428.17	4206.53
428.38	4235.20
428.59	4179.90
428.80	4151.23
429.01	4206.53
429.23	4210.62
429.44	4431.80
429.65	4380.61
429.86	4323.26
430.07	4270.01
430.28	4333.50
430.49	4417.47
430.70	4528.06
430.91	4284.35
431.12	4460.48
431.33	4499.39
431.54	4548.54
431.75	4540.35
431.96	4376.51
432.17	4528.06
432.38	4530.11
432.59	4632.51
432.80	4569.02
433.01	4593.59
433.22	4628.41
433.43	4665.27
433.64	4734.90
433.85	4636.60
434.06	4751.29
434.27	4706.23
434.49	4845.49
434.70	4925.36
434.91	4773.82
435.12	4851.64
435.33	4759.48
435.54	4863.93
435.75	4741.05
435.96	4911.03
436.17	4765.62
436.38	4835.25
436.59	5060.53
436.80	4771.77
437.01	5210.03
437.22	5087.15
437.43	5081.01
437.64	4958.13
437.85	5115.83
438.06	5197.74
438.27	5089.20
438.48	5085.11
438.69	5007.28
438.90	5183.41
439.11	5152.69
439.32	5265.33
439.53	5279.66
439.74	5287.86
439.95	5199.79
440.16	5283.76
440.37	5255.09
440.57	5197.74
440.78	5279.66
440.99	5310.38
441.20	5343.15
441.41	5240.75
441.62	5388.21
441.83	5375.92
442.04	5408.69
442.25	5423.02
442.46	5494.70
442.67	5443.50
442.88	5826.47
443.09	5367.73
443.30	5511.08
443.51	5486.51
443.72	5640.11
443.93	5570.48
444.14	5711.78
444.35	5556.14
444.56	5527.47
444.77	5697.45
444.98	5482.41
445.19	5734.31
445.40	5777.32
445.61	5787.56
445.81	5840.81
446.02	5771.18
446.23	5789.61
446.44	5674.92
446.65	5599.15
446.86	5775.27
447.07	5674.92
447.28	5965.73
447.49	5965.73
447.70	5769.13
447.91	5965.73
448.12	6037.41
448.33	6033.32
448.54	5973.92
448.74	6051.75
448.95	6023.08
449.16	5980.07
449.37	6234.02
449.58	5984.16
449.79	6121.38
450.00	6104.99
450.21	6225.82
450.42	6244.26
450.63	6328.22
450.84	6248.35
451.05	6197.15
451.25	6258.59
451.46	6328.22
451.67	6465.44
451.88	6479.77
452.09	6432.67
452.30	6410.14
452.51	6444.96
452.72	6530.97
452.93	6498.20
453.13	6461.34
453.34	6578.08
453.55	6541.21
453.76	6401.95
453.97	6827.93
454.18	6680.47
454.39	6772.63
454.60	6801.30
454.81	6799.26
455.01	6944.66
455.22	6520.73
455.43	6733.72
455.64	7024.53
455.85	7055.25
456.06	6991.77
456.27	7090.07
456.48	7047.06
456.68	6979.48
456.89	7018.39
457.10	7184.27
457.31	7190.42
457.52	7133.08
457.73	7444.37
457.94	7364.50
458.14	7198.61
458.35	7393.17
458.56	7374.74
458.77	7448.46
458.98	7591.82
459.19	7548.81
459.39	7475.09
459.60	7587.72
459.81	7434.13
460.02	7657.36
460.23	7557.00
460.44	7733.13
460.65	7757.71
460.85	7839.62
461.06	7872.39
461.27	7602.06
461.48	8001.41
461.69	8058.76
461.89	7962.50
462.10	7751.56
462.31	7819.14
462.52	7696.27
462.73	8124.29
462.94	8163.20
463.14	8136.58
463.35	7997.32
463.56	8515.45
463.77	8462.21
463.98	8286.08
464.18	8357.76
464.39	8437.63
464.60	8587.13
464.81	8738.68
465.02	8451.97
465.23	8902.52
465.43	8546.17
465.64	9031.54
465.85	8742.78
466.06	8478.59
466.27	8990.58
466.47	8935.29
466.68	8859.51
466.89	8986.49
467.10	9369.46
467.30	9070.45
467.51	9117.56
467.72	9183.09
467.93	9262.96
468.14	9363.31
468.34	9348.98
468.55	9377.65
468.76	9457.52
468.97	9328.50
469.17	9686.89
469.38	9744.24
469.59	9783.15
469.80	9635.69
470.01	9492.34
470.21	9725.80
470.42	9969.51
470.63	9922.41
470.84	9781.10
471.04	10102.63
471.25	10151.78
471.46	10082.15
471.67	10354.53
471.87	10323.81
472.08	10458.98
472.29	10698.59
472.50	10153.83
472.70	10395.49
472.91	10534.75
473.12	10737.50
473.33	10790.75
473.53	10843.99
473.74	10782.56
473.95	10973.02
474.16	11167.57
474.36	11020.12
474.57	11284.31
474.78	11315.03
474.99	11241.30
475.19	10979.16
475.40	11431.76
475.61	11513.68
475.81	11749.20
476.02	11716.43
476.23	11777.87
476.44	11792.20
476.64	12105.54
476.85	12017.48
477.06	12066.63
477.27	12369.73
477.47	12212.04
477.68	12314.44
477.89	12541.76
478.09	12437.31
478.30	12429.12
478.51	12578.62
478.71	12724.03
478.92	12996.41
479.13	12947.26
479.34	13008.70
479.54	13035.32
479.75	13045.56
479.96	13023.03
480.16	12988.22
480.37	13303.60
480.58	13324.08
480.78	13645.62
480.99	13594.42
481.20	13666.10
481.41	13803.31
481.61	13741.87
481.82	13868.84
482.03	13819.69
482.23	13874.99
482.44	14173.99
482.65	14229.29
482.85	14147.37
483.06	14470.95
483.27	14511.91
483.47	14147.37
483.68	14651.17
483.89	14706.46
484.09	14665.50
484.30	14806.81
484.51	14755.61
484.71	14984.99
484.92	14982.94
485.13	15146.78
485.33	15204.12
485.54	15261.46
485.75	15247.13
485.95	15443.73
486.16	15619.86
486.37	15648.53
486.57	15652.63
486.78	15572.75
486.98	15783.70
487.19	16086.79
487.40	15947.53
487.60	15959.82
487.81	16152.33
488.02	16115.47
488.22	16029.45
488.43	16375.56
488.64	16420.61
488.84	16713.47
489.05	16643.84
489.25	16762.62
489.46	16885.50
489.67	16637.70
489.87	17010.43
490.08	16908.03
490.29	17035.00
490.49	16996.09
490.70	17311.48
490.90	17547.00
491.11	17407.73
491.32	17649.39
491.52	17288.95
491.73	17606.39
491.94	17499.89
492.14	17714.93
492.35	17827.57
492.55	17807.09
492.76	18118.38
492.97	17891.06
493.17	17983.21
493.38	18171.63
493.58	18239.21
493.79	18398.95
494.00	18476.77
494.20	18548.45
494.41	18566.88
494.61	18589.41
494.82	18497.25
495.02	18878.18
495.23	18876.13
495.44	18697.95
495.64	18857.70
495.85	19093.21
496.05	19287.77
496.26	19064.54
496.47	19150.56
496.67	19152.60
496.88	19422.94
497.08	19396.31
497.29	19556.05
497.49	19461.85
497.70	19640.02
497.91	19889.87
498.11	19797.71
498.32	19947.22
498.52	19635.92
498.73	20262.60
498.93	19924.69
499.14	19918.54
499.34	20133.58
499.55	20678.34
499.76	19963.60
499.96	20184.78
500.17	20643.52
500.37	20551.37
500.58	20559.56
500.78	20801.22
500.99	20401.86
501.19	20842.18
501.40	20956.86
501.60	20682.44
501.81	20823.75
502.02	20979.39
502.22	20842.18
502.43	21309.11
502.63	20887.23
502.84	21284.54
503.04	21067.45
503.25	21270.20
503.45	21321.40
503.66	21821.11
503.86	21491.38
504.07	21767.86
504.27	21511.86
504.48	21683.89
504.68	21667.51
504.89	21663.41
505.09	21757.62
505.30	21964.46
505.50	21757.62
505.71	21913.27
505.91	22089.39
506.12	22038.19
506.32	21931.70
506.53	22271.66
506.73	22365.87
506.94	22398.63
507.14	22124.21
507.35	22388.39
507.55	22613.67
507.76	22572.71
507.96	22421.16
508.17	22503.08
508.37	22570.66
508.58	22668.97
508.78	22650.53
508.99	22830.76
509.19	22828.71
509.40	22986.40
509.60	22738.60
509.81	22933.15
510.01	22914.72
510.22	22822.56
510.42	22937.25
510.63	23232.16
510.83	22943.39
511.04	23088.80
511.24	23070.37
511.44	23260.83
511.65	23174.81
511.85	23248.54
512.06	23506.59
512.26	23643.80
512.47	23463.58
512.67	23690.90
512.88	23922.32
513.08	23234.21
513.29	23516.83
513.49	23639.70
513.69	23783.06
513.90	23957.14
514.10	23856.79
514.31	23989.91
514.51	24338.06
514.72	23778.97
514.92	23817.88
515.13	23910.04
515.33	24053.39
515.53	24155.79
515.74	23950.99
515.94	24114.83
516.15	24424.08
516.35	24223.37
516.56	24471.18
516.76	24358.54
516.96	24614.54
517.17	24516.23
517.37	24729.22
517.58	24534.67
517.78	24712.84
517.99	24505.99
518.19	24948.36
518.39	24936.07
518.60	24850.05
518.80	24977.03
519.01	25097.86
519.21	24827.53
519.41	25185.92
519.62	24944.26
519.82	24954.50
520.03	25120.38
520.23	25486.97
520.43	25329.28
520.64	25691.77
520.84	25407.10
521.05	25407.10
521.25	25294.46
521.45	25431.68
521.66	25906.80
521.86	25341.57
522.07	25521.79
522.27	25861.75
522.47	25587.32
522.68	25910.90
522.88	26152.56
523.08	26027.63
523.29	26158.70
523.49	25906.80
523.70	26314.35
523.90	26322.54
524.10	26654.31
524.31	26582.63
524.51	26297.97
524.71	26662.51
524.92	26672.74
525.12	26875.49
525.33	26553.96
525.53	26760.81
525.73	27025.00
525.94	26771.05
526.14	26934.88
526.34	27063.91
526.55	26803.82
526.75	27041.38
526.95	27242.08
527.16	27100.77
527.36	27350.62
527.56	27242.08
527.77	27967.06
527.97	27704.92
528.17	27489.88
528.38	27801.18
528.58	27835.99
528.78	27715.16
528.99	27946.58
529.19	28014.16
529.39	27881.05
529.60	28110.42
529.80	28235.35
530.00	27727.45
530.21	28239.44
530.41	28468.81
530.61	28210.77
530.82	28362.32
531.02	28472.91
531.22	28773.96
531.43	28477.01
531.63	28718.67
531.83	28866.12
532.04	29083.20
532.24	28620.36
532.44	29021.77
532.64	28950.09
532.85	29470.27
533.05	29564.48
533.25	29318.72
533.46	29144.64
533.66	29466.17
533.86	29558.33
534.07	29896.25
534.27	29550.14
534.47	29881.91
534.67	29654.59
534.88	29771.32
535.08	30000.69
535.28	29799.99
535.49	30479.92
535.69	30404.14
535.89	30418.48
536.09	30311.99
536.30	30707.24
536.50	30258.74
536.70	30748.20
536.91	30277.17
537.11	30672.43
537.31	30885.42
537.51	30932.52
537.72	31108.65
537.92	30871.08
538.12	31297.06
538.32	30864.94
538.53	31260.20
538.73	31270.43
538.93	31356.45
539.13	31497.76
539.34	31206.95
539.54	30961.19
539.74	31680.03
539.94	31741.47
540.15	31573.53
540.35	31718.94
540.55	31739.42
540.75	31718.94
540.96	31976.98
541.16	31938.07
541.36	31966.74
541.56	32060.95
541.77	32355.86
541.97	32163.35
542.17	32149.01
542.37	32550.42
542.58	32155.16
542.78	32169.49
542.98	32296.47
543.18	32255.51
543.38	32390.67
543.59	32628.24
543.79	32708.11
543.99	32417.30
544.19	32384.53
544.40	32843.27
544.60	32904.71
544.80	32726.54
545.00	32943.63
545.20	32947.72
545.41	32511.50
545.61	32900.62
545.81	33052.17
546.01	33017.35
546.21	32994.82
546.42	33025.54
546.62	33299.97
546.82	33275.40
547.02	33058.31
547.22	33324.55
547.43	33297.92
547.63	33334.79
547.83	33402.37
548.03	33508.86
548.23	33621.50
548.44	33420.80
548.64	33506.82
548.84	33566.21
549.04	33531.39
549.24	33762.81
549.45	33885.69
549.65	33644.03
549.85	33734.14
550.05	34147.83
550.25	33689.09
550.45	34084.34
550.66	34080.25
550.86	33914.36
551.06	34004.47
551.26	34190.84
551.46	34352.63
551.66	33926.65
551.87	34012.66
552.07	34207.22
552.27	34184.69
552.47	34094.58
552.67	34383.35
552.87	34371.06
553.07	34369.01
553.28	34287.09
553.48	34694.64
553.68	34082.30
553.88	34993.64
554.08	34579.95
554.28	34450.93
554.48	34223.61
554.69	35032.55
554.89	34457.07
555.09	34559.47
555.29	34969.07
555.49	34768.37
555.69	34606.58
555.89	34735.60
556.10	34647.54
556.30	34332.15
556.50	34797.04
556.70	34661.87
556.90	34803.18
557.10	34719.21
557.30	34616.82
557.50	35040.75
557.70	35063.27
557.91	35108.33
558.11	34989.55
558.31	35171.82
558.51	35067.37
558.71	34760.17
558.91	35665.38
559.11	35378.66
559.31	35239.40
559.51	35036.65
559.72	35067.37
559.92	35349.99
560.12	35050.99
560.32	35233.25
560.52	35044.84
560.72	35366.37
560.92	35190.25
561.12	35034.60
561.32	35524.07
561.52	35339.75
561.72	35507.68
561.93	35562.98
562.13	35810.78
562.33	35532.26
562.53	35880.41
562.73	35429.86
562.93	35513.83
563.13	35657.18
563.33	35169.77
563.53	35837.41
563.73	35618.27
563.93	35618.27
564.13	35980.76
564.33	35542.50
564.53	35497.44
564.74	35661.28
564.94	35648.99
565.14	35984.86
565.34	35456.48
565.54	36103.64
565.74	35823.07
565.94	36048.35
566.14	35679.71
566.34	35958.24
566.54	36437.46
566.74	35429.86
566.94	36320.73
567.14	36140.50
567.34	36031.96
567.54	35911.13
567.74	35980.76
567.94	35808.73
568.14	36083.16
568.34	36259.29
568.54	36185.56
568.74	36482.52
568.94	36224.47
569.14	36224.47
569.34	36382.16
569.54	36503.00
569.75	36335.06
569.95	36296.15
570.15	36482.52
570.35	36527.57
570.55	36521.43
570.75	36443.60
570.95	36605.39
571.15	36482.52
571.35	36662.74
571.55	36652.50
571.75	36324.82
571.95	36634.06
572.15	36404.69
572.35	36730.32
572.55	36652.50
572.75	36767.18
572.95	36609.49
573.15	36478.42
573.35	36597.20
573.55	36683.22
573.75	36621.78
573.95	36754.90
574.15	36646.35
574.35	37062.09
574.55	36765.14
574.75	36949.45
574.95	37080.52
575.15	36832.72
575.34	36761.04
575.54	36752.85
575.74	37080.52
575.94	37199.30
576.14	36644.30
576.34	37144.01
576.54	37033.42
576.74	37377.48
576.94	37207.50
577.14	37313.99
577.34	37275.08
577.54	37215.69
577.74	37623.23
577.94	37502.40
578.14	37453.25
578.34	37488.07
578.54	37150.15
578.74	37404.10
578.94	37656.00
579.14	37393.86
579.34	37250.50
579.54	37232.07
579.74	37369.29
579.94	37434.82
580.13	37639.62
580.33	37391.81
580.53	37615.04
580.73	37930.43
580.93	37443.01
581.13	37539.27
581.33	38145.47
581.53	38127.03
581.73	37680.58
581.93	37817.79
582.13	38045.12
582.33	38321.59
582.53	37737.92
582.73	37946.81
582.92	38075.84
583.12	37905.85
583.32	38141.37
583.52	38215.10
583.72	38456.76
583.92	37883.33
584.12	38127.03
584.32	38757.81
584.52	38245.82
584.72	38221.24
584.92	38274.49
585.11	39028.14
585.31	38358.45
585.51	38579.64
585.71	38360.50
585.91	38657.46
586.11	38559.16
586.31	38419.89
586.51	38548.92
586.71	38591.92
586.91	38512.05
587.10	38987.18
587.30	38555.06
587.50	38684.08
587.70	39038.38
587.90	38641.07
588.10	38847.92
588.30	39042.48
588.50	38811.06
588.69	38843.82
588.89	38843.82
589.09	39237.03
589.29	38913.45
589.49	39558.56
589.69	38964.65
589.89	39290.28
590.08	38839.73
590.28	39007.66
590.48	38950.32
590.68	39116.20
590.88	38927.79
591.08	38933.93
591.28	38684.08
591.47	39517.60
591.67	39267.75
591.87	38991.28
592.07	39441.83
592.27	39490.98
592.47	38968.75
592.67	39126.44
592.86	39198.12
593.06	39255.46
593.26	39398.82
593.46	39689.63
593.66	39419.30
593.86	39337.38
594.05	39294.38
594.25	39548.32
594.45	39460.26
594.65	39458.21
594.85	38948.27
595.05	39304.62
595.24	39816.61
595.44	39271.85
595.64	39622.05
595.84	39656.87
596.04	39392.68
596.23	39562.66
596.43	39515.56
596.63	39622.05
596.83	39560.61
597.03	39548.32
597.22	39890.34
597.42	39988.64
597.62	40078.75
597.82	39706.02
598.02	39916.96
598.21	40080.80
598.41	39693.73
598.61	40234.39
598.81	40209.82
599.01	40000.93
599.20	39984.54
599.40	40082.84
599.60	39982.49
599.80	40258.97
600.00	40254.87
600.19	40240.54
600.39	39880.10
600.59	40463.77
600.79	40459.67
600.98	40224.15
601.18	40314.26
601.38	39984.54
601.58	40238.49
601.78	40613.27
601.97	40441.24
602.17	40768.91
602.37	40603.03
602.57	40306.07
602.76	40881.55
602.96	40471.96
603.16	40922.51
603.36	40531.35
603.55	40723.86
603.75	40162.72
603.95	40619.41
604.15	40773.01
604.34	40682.90
604.54	40838.54
604.74	40486.29
604.94	40834.45
605.13	41043.34
605.33	40879.50
605.53	40983.95
605.73	41215.37
605.92	40828.30
606.12	41102.73
606.32	41463.18
606.52	40877.46
606.71	41293.19
606.91	41172.36
607.11	40942.99
607.30	41069.97
607.50	41033.10
607.70	41381.26
607.90	40783.25
608.09	41139.60
608.29	41268.62
608.49	41241.99
608.68	41301.39
608.88	41430.41
609.08	41151.88
609.28	41375.11
609.47	41272.71
609.67	41604.49
609.87	41395.59
610.06	41514.37
610.26	40832.40
610.46	41182.60
610.66	41293.19
610.85	41348.49
611.05	41285.00
611.25	41411.98
611.44	41102.73
611.64	41448.84
611.84	40891.79
612.03	41295.24
612.23	41444.74
612.43	41348.49
612.62	41633.16
612.82	41463.18
613.02	41391.50
613.21	41180.56
613.41	41393.54
613.61	41348.49
613.80	41416.07
614.00	41176.46
614.20	41291.15
614.39	41620.87
614.59	41239.95
614.79	41104.78
614.98	41276.81
615.18	41328.01
615.38	41270.67
615.57	41162.12
615.77	41227.66
615.97	41282.95
616.16	41332.11
616.36	40836.50
616.56	41713.03
616.75	40998.29
616.95	40990.09
617.15	40975.76
617.34	41545.09
617.54	41010.57
617.74	41500.04
617.93	41241.99
618.13	40887.70
618.32	41346.44
618.52	41219.47
618.72	41065.87
618.91	41313.67
619.11	41047.44
619.31	40863.12
619.50	40832.40
619.70	40695.19
619.90	41065.87
620.09	41063.82
620.29	40977.81
620.48	40904.08
620.68	41416.07
620.88	40568.21
621.07	40500.63
621.27	40983.95
621.46	40457.62
621.66	40953.23
621.86	40893.84
622.05	40428.95
622.25	40844.69
622.44	41002.38
622.64	40721.81
622.84	41276.81
623.03	40891.79
623.23	40750.48
623.42	41254.28
623.62	40906.13
623.82	41043.34
624.01	40787.35
624.21	40809.87
624.40	40660.37
624.60	40770.96
624.80	40537.49
624.99	40459.67
625.19	40273.31
625.38	40609.17
625.58	40512.92
625.77	40687.00
625.97	40426.90
626.17	40711.57
626.36	40611.22
626.56	40883.60
626.75	40203.67
626.95	40834.45
627.14	40789.39
627.34	41053.58
627.54	40748.43
627.73	40779.15
627.93	40474.01
628.12	40394.14
628.32	40682.90
628.51	40474.01
628.71	40611.22
628.90	40574.36
629.10	40453.53
629.30	40109.47
629.49	40355.22
629.69	40527.25
629.88	40392.09
630.08	41022.86
630.27	40758.67
630.47	40555.93
630.66	40293.79
630.86	40629.65
631.05	39988.64
631.25	40189.34
631.44	40054.17
631.64	40170.91
631.84	39996.83
632.03	40867.22
632.23	40531.35
632.42	40734.10
632.62	40215.96
632.81	40154.52
633.01	40048.03
633.20	40330.65
633.40	40469.91
633.59	40342.94
633.79	40222.11
633.98	40265.11
634.18	40361.37
634.37	40172.96
634.57	40142.24
634.76	40295.83
634.96	40572.31
635.15	40678.80
635.35	40191.39
635.54	39949.73
635.74	40424.86
635.93	39916.96
636.13	40230.30
636.32	40457.62
636.52	40170.91
636.71	40009.12
636.91	40097.18
637.10	40297.88
637.30	39990.69
637.49	39986.59
637.69	40138.14
637.88	40299.93
638.08	39849.38
638.27	40248.73
638.46	39947.68
638.66	39916.96
638.85	39929.25
639.05	39943.58
639.24	40387.99
639.44	39843.23
639.63	39998.88
639.83	40246.68
640.02	40091.04
640.22	40078.75
640.41	40074.65
640.61	39812.51
640.80	40125.85
640.99	39908.77
641.19	40183.19
641.38	40025.50
641.58	39892.38
641.77	39828.90
641.97	39816.61
642.16	39970.21
642.36	40179.10
642.55	40488.34
642.74	39886.24
642.94	40635.80
643.13	39837.09
643.33	40422.81
643.52	40373.66
643.72	40082.84
643.91	40031.65
644.10	40111.52
644.30	40203.67
644.49	39990.69
644.69	39898.53
644.88	40082.84
645.08	39904.67
645.27	39998.88
645.46	39941.53
645.66	39783.84
645.85	39871.90
646.05	39931.29
646.24	40238.49
646.43	39919.01
646.63	40318.36
646.82	40021.41
647.02	39736.74
647.21	39978.40
647.40	39814.56
647.60	40105.37
647.79	39964.06
647.99	39972.25
648.18	39916.96
648.37	40156.57
648.57	40234.39
648.76	40254.87
648.96	39984.54
649.15	40123.80
649.34	40584.60
649.54	40138.14
649.73	39878.05
649.92	39921.05
650.12	40101.28
650.31	39835.04
650.51	40326.55
650.70	40160.67
650.89	40119.71
651.09	40488.34
651.28	39734.69
651.47	40119.71
651.67	39728.55
651.86	40297.88
652.06	39552.42
652.25	40115.61
652.44	40254.87
652.64	39736.74
652.83	39906.72
653.02	39484.84
653.22	39880.10
653.41	39556.52
653.60	40015.26
653.80	39765.41
653.99	40195.48
654.18	39501.22
654.38	39738.79
654.57	39718.31
654.76	39802.27
654.96	39916.96
655.15	39765.41
655.34	39544.23
655.54	39497.13
655.73	39878.05
655.92	39896.48
656.12	39837.09
656.31	39822.75
656.50	39798.18
656.70	39638.44
656.89	39736.74
657.08	39851.42
657.28	39777.70
657.47	39736.74
657.66	40060.32
657.86	39591.33
658.05	39781.79
658.24	39671.20
658.43	39407.01
658.63	39919.01
658.82	39746.98
659.01	39978.40
659.21	39757.22
659.40	39779.74
659.59	39466.41
659.79	40123.80
659.98	39771.55
660.17	39714.21
660.36	39577.00
660.56	39482.79
660.75	39335.34
660.94	39404.97
661.14	39880.10
661.33	39740.83
661.52	39243.18
661.71	39570.85
661.91	39136.68
662.10	38895.02
662.29	39789.98
662.49	39454.12
662.68	39374.25
662.87	39454.12
663.06	39691.68
663.26	39261.61
663.45	39744.93
663.64	39409.06
663.83	39716.26
664.03	39450.02
664.22	39562.66
664.41	39374.25
664.60	39108.01
664.80	39273.90
664.99	39353.77
665.18	39122.35
665.37	39650.72
665.57	39327.14
665.76	39142.83
665.95	39482.79
666.14	39126.44
666.34	38913.45
666.53	39171.50
666.72	38866.35
666.91	39134.63
667.11	39204.27
667.30	39380.39
667.49	39007.66
667.68	39216.55
667.87	39302.57
668.07	39024.04
668.26	38776.24
668.45	39140.78
668.64	39001.52
668.84	39357.86
669.03	39187.88
669.22	38925.74
669.41	38649.27
669.60	39314.86
669.80	39093.68
669.99	39120.30
670.18	38909.36
670.37	38964.65
670.57	38809.01
670.76	39126.44
670.95	39087.53
671.14	38985.13
671.33	38749.62
671.53	39183.79
671.72	38997.42
671.91	38778.29
672.10	38743.47
672.29	38696.37
672.48	38333.88
672.68	38585.78
672.87	38774.19
673.06	38514.10
673.25	38645.17
673.44	38292.92
673.64	38503.86
673.83	38589.88
674.02	38897.07
674.21	38475.19
674.40	38696.37
674.59	38299.06
674.79	38618.55
674.98	38446.52
675.17	38434.23
675.36	38399.41
675.55	38784.43
675.74	38182.33
675.94	38426.04
676.13	38376.89
676.32	38479.28
676.51	38374.84
676.70	38225.34
676.89	38254.01
677.08	38370.74
677.28	37887.42
677.47	38356.41
677.66	38757.81
677.85	38256.06
678.04	38618.55
678.23	38337.98
678.42	38247.86
678.62	38251.96
678.81	38331.83
679.00	37952.96
679.19	38331.83
679.38	38149.56
679.57	38311.35
679.76	38063.55
679.96	38266.30
680.15	37758.40
680.34	38176.19
680.53	37547.46
680.72	38063.55
680.91	38114.75
681.10	37987.77
681.29	37768.64
681.48	37903.81
681.68	38049.21
681.87	37569.99
682.06	37774.78
682.25	37365.19
682.44	37641.67
682.63	37729.73
682.82	37615.04
683.01	37545.41
683.20	37316.04
683.39	37580.23
683.59	37313.99
683.78	37498.31
683.97	37248.46
684.16	37502.40
684.35	37144.01
684.54	37252.55
684.73	37291.46
684.92	37066.19
685.11	37182.92
685.30	37225.93
685.49	37635.52
685.69	37223.88
685.88	37402.05
686.07	37121.48
686.26	36912.59
686.45	37326.28
686.64	36994.51
686.83	36933.07
687.02	37230.02
687.21	37107.15
687.40	37109.19
687.59	36834.77
687.78	36799.95
687.97	37105.10
688.16	37230.02
688.35	36976.08
688.54	36824.53
688.74	36687.31
688.93	36761.04
689.12	36959.69
689.31	36795.85
689.50	36888.01
689.69	36472.28
689.88	36412.88
690.07	36568.53
690.26	36429.27
690.45	36634.06
690.64	36365.78
690.83	36396.50
691.02	36095.45
691.21	36302.29
691.40	36238.81
691.59	36333.01
691.78	36292.05
691.97	36214.23
692.16	36312.53
692.35	36165.08
692.54	36615.63
692.73	36466.13
692.92	36345.30
693.11	35962.33
693.30	36236.76
693.49	36484.56
693.68	35993.05
693.87	35935.71
694.06	35921.37
694.25	36455.89
694.44	35943.90
694.63	35958.24
694.82	35843.55
695.01	36144.60
695.20	35804.64
695.39	35765.73
695.58	35552.74
695.77	35878.36
695.96	35526.11
696.15	35628.51
696.34	35763.68
696.53	35698.14
696.72	35673.57
696.91	35644.90
697.10	35829.21
697.29	35485.15
697.48	35415.52
697.67	35657.18
697.86	35454.44
698.05	35352.04
698.24	35378.66
698.43	34835.95
698.62	35386.85
698.81	35425.76
699.00	35216.87
699.19	35476.96
699.38	35020.27
699.57	34917.87
699.76	35378.66
699.95	35145.19
700.14	34770.41
700.32	34901.48
700.51	34883.05
700.70	35499.49
700.89	34948.59
701.08	34784.75
701.27	34967.02
701.46	34930.16
701.65	34534.90
701.84	34526.71
702.03	34811.37
702.22	34440.69
702.41	34622.96
702.60	34573.81
702.79	34489.84
702.98	34782.70
703.17	34479.60
703.35	34371.06
703.54	34274.80
703.73	34608.62
703.92	35022.31
704.11	34794.99
704.30	34412.02
704.49	34182.65
704.68	34035.19
704.87	34295.28
705.06	34235.89
705.25	34225.65
705.43	34293.24
705.62	34323.96
705.81	34016.76
706.00	33994.23
706.19	33777.15
706.38	33854.97
706.57	33748.48
706.76	33897.98
706.95	33963.51
707.14	33889.79
707.32	33676.80
707.51	33840.64
707.70	33807.87
707.89	33674.75
708.08	33932.79
708.27	33592.83
708.46	33844.73
708.65	33975.80
708.84	33424.90
709.02	33824.25
709.21	33469.95
709.40	33410.56
709.59	33459.71
709.78	33304.07
709.97	33684.99
710.16	33422.85
710.34	33302.02
710.53	32960.01
710.72	33232.39
710.91	33275.40
711.10	33314.31
711.29	33598.98
711.48	33238.53
711.66	33023.50
711.85	32878.09
712.04	32970.25
712.23	33113.61
712.42	32957.96
712.61	32882.19
712.80	33101.32
712.98	32992.78
713.17	32697.87
713.36	33021.45
713.55	32826.89
713.74	32818.70
713.93	32900.62
714.11	32294.42
714.30	32638.48
714.49	32595.47
714.68	32398.87
714.87	32652.81
715.06	32722.44
715.24	32456.21
715.43	32591.37
715.62	32577.04
715.81	32470.54
716.00	32343.57
716.18	32083.48
716.37	32052.76
716.56	32171.54
716.75	32228.88
716.94	31950.36
717.12	32011.80
717.31	32028.18
717.50	31800.86
717.69	31921.69
717.88	32034.33
718.06	31821.34
718.25	31958.55
718.44	31462.94
718.63	31583.77
718.82	31612.45
719.00	31774.24
719.19	31438.37
719.38	31788.57
719.57	31526.43
719.76	31307.30
719.94	31344.16
720.13	31462.94
720.32	31516.19
720.51	31096.36
720.69	31249.96
720.88	31274.53
721.07	31039.01
721.26	30967.34
721.44	30940.71
721.63	30879.27
721.82	31045.16
722.01	30658.09
722.20	30817.83
722.38	30891.56
722.57	30719.53
722.76	30404.14
722.95	30686.76
723.13	30461.49
723.32	30567.98
723.51	30254.64
723.70	30740.01
723.88	30459.44
724.07	30348.85
724.26	30496.30
724.44	29980.21
724.63	30488.11
724.82	30160.44
725.01	30109.24
725.19	30195.25
725.38	30287.41
725.57	29929.02
725.76	30123.57
725.94	30148.15
726.13	29892.15
726.32	29935.16
726.51	29644.35
726.69	29875.77
726.88	30228.02
727.07	29746.75
727.25	29906.49
727.44	29947.45
727.63	29720.12
727.82	29908.54
728.00	29918.78
728.19	29656.64
728.38	29544.00
728.56	29693.50
728.75	29853.24
728.94	29711.93
729.12	29716.03
729.31	29521.47
729.50	29699.64
729.69	30002.74
729.87	29349.44
730.06	29611.58
730.25	29449.79
730.43	29498.94
730.62	29251.14
730.81	29759.03
730.99	29412.93
731.18	29707.83
731.37	29378.11
731.55	29566.52
731.74	29591.10
731.93	29226.56
732.11	29226.56
732.30	29496.89
732.49	29077.06
732.67	29511.23
732.86	29439.55
733.05	29349.44
733.23	29089.35
733.42	29136.45
733.61	29095.49
733.79	29113.92
733.98	29079.11
734.17	28986.95
734.35	29130.31
734.54	29048.39
734.73	29146.69
734.91	29095.49
735.10	28767.82
735.29	29392.45
735.47	28837.45
735.66	29015.62
735.84	28884.55
736.03	28943.94
736.22	29148.74
736.40	28735.05
736.59	28825.16
736.78	28751.43
736.96	28782.15
737.15	28790.34
737.33	28522.06
737.52	28724.81
737.71	28773.96
737.89	28767.82
738.08	28321.36
738.27	28274.26
738.45	28464.72
738.64	28671.56
738.82	28419.66
739.01	28395.09
739.20	28198.48
739.38	28429.90
739.57	28436.05
739.75	28386.89
739.94	28696.14
740.13	28251.73
740.31	28188.24
740.50	28094.04
740.68	28249.68
740.87	28434.00
741.06	28077.65
741.24	27942.49
741.43	28110.42
741.61	28223.06
741.80	27973.21
741.99	27891.29
742.17	27725.40
742.36	27688.54
742.54	27909.72
742.73	27774.55
742.91	27924.05
743.10	28165.71
743.29	27856.47
743.47	27788.89
743.66	27627.10
743.84	27764.31
744.03	27942.49
744.21	27704.92
744.40	27756.12
744.59	27743.83
744.77	27526.75
744.96	27721.30
745.14	27577.95
745.33	27473.50
745.51	27444.83
745.70	27307.62
745.88	27131.49
746.07	27229.79
746.26	27192.93
746.44	27262.56
746.63	27231.84
746.81	27332.19
747.00	26824.29
747.18	27332.19
747.37	27154.02
747.55	27274.85
747.74	26973.80
747.92	26574.44
748.11	27309.66
748.29	26906.21
748.48	27074.15
748.66	27020.90
748.85	26947.17
749.03	27010.66
749.22	27246.18
749.41	26844.77
749.59	26998.37
749.78	27145.83
749.96	26631.79
750.15	26586.73
750.33	26570.35
750.52	26627.69
750.70	26449.52
750.89	26619.50
751.07	26369.65
751.26	26500.72
751.44	26209.90
751.63	26605.16
751.81	26254.96
752.00	26517.10
752.18	26521.20
752.37	26531.44
752.55	26230.38
752.74	26642.03
752.92	26564.20
753.10	26320.49
753.29	26586.73
753.47	26066.55
753.66	25859.70
753.84	26228.34
754.03	26230.38
754.21	26005.11
754.40	26386.03
754.58	26269.30
754.77	25921.14
754.95	25960.05
755.14	26082.93
755.32	25908.85
755.51	25646.71
755.69	25876.09
755.88	25562.75
756.06	25861.75
756.24	25650.81
756.43	25923.19
756.61	25593.47
756.80	25546.36
756.98	25570.94
757.17	25785.97
757.35	25718.39
757.54	25273.98
757.72	25732.73
757.90	25491.07
758.09	25327.23
758.27	25527.93
758.46	25319.04
758.64	25527.93
758.83	25618.04
759.01	25583.23
759.19	25556.60
759.38	25349.76
759.56	25519.74
759.75	25280.13
759.93	25568.89
760.12	25099.90
760.30	25360.00
760.48	25466.49
760.67	24983.17
760.85	25077.38
761.04	25073.28
761.22	24925.83
761.40	25030.27
761.59	25128.58
761.77	24680.07
761.96	25239.17
762.14	24794.76
762.32	24882.82
762.51	24884.87
762.69	25142.91
762.88	24905.35
763.06	24704.65
763.24	24870.53
763.43	25038.47
763.61	24639.11
763.80	24827.53
763.98	24837.76
764.16	24809.09
764.35	24573.58
764.53	24434.32
764.72	24415.88
764.90	24708.74
765.08	24680.07
765.27	24526.47
765.45	24606.34
765.63	24419.98
765.82	24301.20
766.00	24331.92
766.18	24108.69
766.37	24479.37
766.55	24309.39
766.74	24534.67
766.92	24284.81
767.10	24237.71
767.29	24415.88
767.47	24006.29
767.65	24159.89
767.84	24055.44
768.02	24110.74
768.20	23996.05
768.39	24096.40
768.57	24043.15
768.75	23973.52
768.94	24245.90
769.12	23938.71
769.30	24080.02
769.49	23875.22
769.67	23879.32
769.85	23545.50
770.04	23574.17
770.22	23586.46
770.40	23613.08
770.59	23846.55
770.77	23895.70
770.95	23692.95
771.14	23402.14
771.32	23570.07
771.50	23496.35
771.69	23441.05
771.87	23649.94
772.05	23350.94
772.24	23350.94
772.42	23293.60
772.60	23131.81
772.78	23398.04
772.97	23324.32
773.15	23262.88
773.33	23269.02
773.52	23244.45
773.70	23369.37
773.88	23418.52
774.07	23148.19
774.25	23150.24
774.43	23207.58
774.61	23312.03
774.80	23258.78
774.98	23119.52
775.16	23283.36
775.34	23064.22
775.53	22998.69
775.71	23174.81
775.89	22992.55
776.08	23170.72
776.26	23105.18
776.44	23068.32
776.62	23078.56
776.81	23053.98
776.99	23146.14
777.17	23107.23
777.35	23131.81
777.54	23226.01
777.72	23047.84
777.90	23023.26
778.08	23236.25
778.27	23111.33
778.45	23482.01
778.63	23492.25
778.81	23195.29
779.00	23250.59
779.18	23512.73
779.36	23215.77
779.54	23117.47
779.73	23142.05
779.91	23058.08
780.09	23537.30
780.27	23518.87
780.46	23133.86
780.64	23299.74
780.82	22982.31
781.00	22918.82
781.19	23379.61
781.37	23377.56
781.55	23152.29
781.73	23215.77
781.91	23361.18
782.10	23506.59
782.28	23340.70
782.46	23320.22
782.64	23348.89
782.82	23107.23
783.01	23250.59
783.19	23101.09
783.37	23305.88
783.55	23035.55
783.74	23160.48
783.92	23148.19
784.10	23391.90
784.28	23410.33
784.46	23086.75
784.64	22988.45
784.83	22922.91
785.01	23047.84
785.19	23047.84
785.37	23271.07
785.55	22988.45
785.74	23058.08
785.92	22900.39
786.10	23254.69
786.28	23207.58
786.46	23160.48
786.64	23013.02
786.83	22990.50
787.01	22976.16
787.19	22769.32
787.37	22728.36
787.55	22724.26
787.74	22705.83
787.92	22759.08
788.10	22886.05
788.28	22808.23
788.46	22886.05
788.64	22628.01
788.82	22900.39
789.01	22789.80
789.19	22802.08
789.37	22650.53
789.55	22726.31
789.73	22580.90
789.91	22535.85
790.09	22462.12
790.28	22582.95
790.46	22236.84
790.64	22546.09
790.82	22267.56
791.00	22324.91
791.18	21866.16
791.36	22240.94
791.55	21991.09
791.73	22113.97
791.91	22070.96
792.09	22136.49
792.27	21943.99
792.45	22154.93
792.63	21894.83
792.81	21716.66
793.00	21726.90
793.18	21685.94
793.36	21794.48
793.54	21610.17
793.72	21683.89
793.90	21622.45
794.08	21499.58
794.26	21583.54
794.44	21401.27
794.62	21216.96
794.81	21397.18
794.99	21272.25
795.17	21610.17
795.35	21417.66
795.53	21227.20
795.71	21364.41
795.89	21231.29
796.07	21251.77
796.25	21155.52
796.43	21040.83
796.61	20958.91
796.80	20913.86
796.98	20850.37
797.16	20766.40
797.34	20819.65
797.52	21006.02
797.70	21046.97
797.88	20707.01
798.06	20666.05
798.24	20481.74
798.42	20502.22
798.60	20561.61
798.78	20596.42
798.96	20414.15
799.14	20510.41
799.32	20330.19
799.51	20262.60
799.69	20303.56
799.87	20469.45
800.05	19838.67
800.23	20137.68
800.41	20176.59
800.59	20141.77
800.77	19961.55
800.95	19959.50
801.13	20045.52
801.31	19889.87
801.49	20127.44
801.67	19789.52
801.85	19992.27
802.03	19726.04
802.21	19680.98
802.39	19431.13
802.57	19367.64
802.75	19443.42
802.93	19367.64
803.11	19289.82
803.29	19134.17
803.47	19125.98
803.65	19367.64
803.83	19320.54
804.01	19166.94
804.19	19078.88
804.37	18953.95
804.55	19187.42
804.73	19390.17
804.91	18943.71
805.09	19234.52
805.27	18906.85
805.45	19019.49
805.63	19001.05
805.81	18525.93
805.99	18900.70
806.17	18761.44
806.35	18790.11
806.53	18687.71
806.71	18581.22
806.89	18675.43
807.07	18628.32
807.25	18548.45
807.43	18386.66
807.61	18491.11
807.79	18444.01
807.97	18050.80
808.15	18220.78
808.33	18214.63
808.51	18175.72
808.69	18124.52
808.87	18046.70
809.05	17975.02
809.23	18063.08
809.41	17876.72
809.59	18110.19
809.77	18108.14
809.95	17708.79
810.13	18026.22
810.31	17985.26
810.49	17766.13
810.67	17653.49
810.84	17876.72
811.02	17690.35
811.20	17456.89
811.38	17669.87
811.56	17352.44
811.74	17282.81
811.92	17489.65
812.10	17528.56
812.28	17534.71
812.46	17626.87
812.64	17639.15
812.82	17389.30
813.00	17213.18
813.18	17250.04
813.36	17143.55
813.53	17155.83
813.71	17133.31
813.89	17094.40
814.07	17116.92
814.25	17342.20
814.43	16992.00
814.61	17004.28
814.79	17022.72
814.97	16948.99
815.15	16895.74
815.33	16625.41
815.50	16817.92
815.68	16652.03
815.86	16799.49
816.04	16846.59
816.22	16441.09
816.40	16568.07
816.58	16699.14
816.76	16709.38
816.94	16480.00
817.11	16459.52
817.29	16500.48
817.47	16099.08
817.65	16381.70
817.83	16494.34
818.01	16283.40
818.19	16203.53
818.37	16221.96
818.54	16166.67
818.72	16054.03
818.90	16326.41
819.08	16193.29
819.26	16195.34
819.44	16000.78
819.62	16072.46
819.80	16115.47
819.97	15980.30
820.15	15961.87
820.33	15875.85
820.51	15890.19
820.69	15617.81
820.87	15738.64
821.05	15990.54
821.22	15720.21
821.40	15845.13
821.58	15750.93
821.76	15861.52
821.94	15675.15
822.12	15597.33
822.29	15587.09
822.47	15302.42
822.65	15744.78
822.83	15578.90
823.01	15468.31
823.19	15406.87
823.36	15310.61
823.54	15365.91
823.72	15441.68
823.90	15456.02
824.08	15236.89
824.25	15539.99
824.43	15185.69
824.61	15327.00
824.79	15437.59
824.97	15097.63
825.15	15359.77
825.32	15173.40
825.50	14769.95
825.68	15232.79
825.86	15107.87
826.04	15005.47
826.21	14860.06
826.39	14929.69
826.57	14888.73
826.75	14853.92
826.93	14810.91
827.10	14892.83
827.28	14960.41
827.46	14962.46
827.64	14941.98
827.81	14731.04
827.99	14747.42
828.17	14745.38
828.35	14657.31
828.53	14831.39
828.70	14780.19
828.88	14452.52
829.06	14679.84
829.24	14794.53
829.41	14548.77
829.59	14796.57
829.77	14479.14
829.95	14556.96
830.12	14434.08
830.30	14628.64
830.48	14511.91
830.66	14556.96
830.84	14493.47
831.01	14315.30
831.19	14374.69
831.37	14188.33
831.55	14260.01
831.72	14145.32
831.90	14184.23
832.08	14233.38
832.25	14061.35
832.43	14194.47
832.61	14077.74
832.79	14090.02
832.96	13989.67
833.14	14120.74
833.32	14141.22
833.50	14292.77
833.67	14130.98
833.85	13995.82
834.03	14018.35
834.20	13965.10
834.38	14169.90
834.56	13901.61
834.74	13844.27
834.91	13836.08
835.09	13614.90
835.27	13592.37
835.44	13834.03
835.62	13637.42
835.80	13645.62
835.98	13702.96
836.15	13659.95
836.33	13489.97
836.51	13729.58
836.68	13715.25
836.86	13827.88
837.04	13727.53
837.21	13741.87
837.39	13428.53
837.57	13725.49
837.75	13504.31
837.92	13377.33
838.10	13610.80
838.28	13440.82
838.45	13551.41
838.63	13309.75
838.81	13229.88
838.98	13477.68
839.16	13414.20
839.34	13199.16
839.51	13205.30
839.69	13125.43
839.87	13379.38
840.04	13262.65
840.22	13432.63
840.40	13154.10
840.57	13023.03
840.75	13272.89
840.93	13057.85
841.10	13274.93
841.28	13453.11
841.46	13266.74
841.63	13041.46
841.81	12930.87
841.98	13098.81
842.16	13199.16
842.34	12955.45
842.51	12914.49
842.69	13098.81
842.87	13076.28
843.04	13195.06
843.22	12754.75
843.40	13010.75
843.57	13072.18
843.75	12939.07
843.92	12783.42
844.10	12699.45
844.28	12789.56
844.45	12748.61
844.63	12828.48
844.81	12691.26
844.98	12883.77
845.16	12472.13
845.33	12703.55
845.51	12730.17
845.69	12752.70
845.86	12558.14
846.04	12666.69
846.21	12447.55
846.39	12445.51
846.57	12392.26
846.74	12429.12
846.92	12377.92
847.09	12511.04
847.27	12508.99
847.45	12324.68
847.62	12494.66
847.80	12445.51
847.97	12320.58
848.15	12371.78
848.32	12515.14
848.50	12549.95
848.68	12302.15
848.85	12222.28
849.03	12154.69
849.20	12293.96
849.38	12152.65
849.56	12064.58
849.73	12304.20
849.91	12345.16
850.08	12234.57
850.26	12044.10
850.43	12242.76
850.61	12214.09
850.78	11986.76
850.96	12121.93
851.14	12185.41
851.31	12226.37
851.49	11945.80
851.66	11927.37
851.84	12040.01
852.01	11904.84
852.19	11917.13
852.36	11933.51
852.54	11997.00
852.71	11976.52
852.89	12029.77
853.07	11712.33
853.24	11888.46
853.42	12054.34
853.59	11661.13
853.77	11755.34
853.94	11736.91
854.12	11849.55
854.29	11628.37
854.47	11755.34
854.64	11822.92
854.82	11689.81
854.99	11530.06
855.17	11595.60
855.34	11654.99
855.52	11698.00
855.69	11601.74
855.87	11589.46
856.04	11366.23
856.22	11538.26
856.39	11505.49
856.57	11562.83
856.74	11415.38
856.92	11386.71
857.09	11593.55
857.27	11413.33
857.44	11482.96
857.62	11343.70
857.79	11470.67
857.97	11609.93
858.14	11296.60
858.32	11083.61
858.49	11431.76
858.67	11181.91
858.84	11335.51
859.02	11239.25
859.19	11243.35
859.37	11095.89
859.54	11196.25
859.72	11173.72
859.89	11122.52
860.06	11028.31
860.24	11233.11
860.41	11149.14
860.59	10958.68
860.76	10911.58
860.94	11075.42
861.11	11073.37
861.29	10882.91
861.46	10917.72
861.64	10803.04
861.81	10940.25
861.98	10985.30
862.16	10997.59
862.33	10710.88
862.51	10624.86
862.68	10696.54
862.86	10868.57
863.03	11003.74
863.21	10585.95
863.38	10704.73
863.55	10530.66
863.73	10649.44
863.90	10624.86
864.08	10807.13
864.25	10635.10
864.43	10569.57
864.60	10409.83
864.77	10473.31
864.95	10737.50
865.12	10241.89
865.30	10393.44
865.47	10469.22
865.64	10411.87
865.82	10606.43
865.99	10493.79
866.17	10456.93
866.34	10514.27
866.51	10225.51
866.69	10485.60
866.86	10485.60
867.04	10338.15
867.21	10526.56
867.38	10370.91
867.56	10227.56
867.73	10309.47
867.91	10014.57
868.08	10227.56
868.25	10317.67
868.43	10213.22
868.60	10162.02
868.78	9989.99
868.95	10223.46
869.12	9930.60
869.30	10088.29
869.47	10035.05
869.64	9975.66
869.82	10096.49
869.99	9979.75
870.16	10069.86
870.34	10106.73
870.51	10125.16
870.69	9961.32
870.86	10010.47
871.03	9903.98
871.21	9834.35
871.38	9922.41
871.55	10008.42
871.73	9734.00
871.90	9799.53
872.07	9869.16
872.25	9793.39
872.42	9564.01
872.59	9680.75
872.77	9695.08
872.94	9615.21
873.11	9854.83
873.29	9490.29
873.46	9459.57
873.63	9609.07
873.81	9639.79
873.98	9641.84
874.15	9336.69
874.33	9330.55
874.50	9490.29
874.67	9668.46
874.85	9459.57
875.02	9434.99
875.19	9310.07
875.37	9488.24
875.54	9348.98
875.71	9242.48
875.88	9242.48
876.06	9428.85
876.23	9242.48
876.40	9193.33
876.58	9430.90
876.75	9328.50
876.92	9115.51
877.10	9330.55
877.27	9168.76
877.44	9078.65
877.61	8990.58
877.79	9142.13
877.96	8988.53
878.13	9117.56
878.31	9082.74
878.48	9037.69
878.65	9058.17
878.82	9117.56
879.00	8972.15
879.17	8935.29
879.34	8968.06
879.51	8738.68
879.69	8955.77
879.86	8730.49
880.03	8765.31
880.21	8820.60
880.38	8925.05
880.55	8918.90
880.72	8836.99
880.90	8879.99
881.07	8988.53
881.24	8812.41
881.41	8877.94
881.59	8822.65
881.76	8632.19
881.93	8822.65
882.10	8580.99
882.28	8697.72
882.45	8736.63
882.62	8671.10
882.79	8796.03
882.96	8587.13
883.14	8753.02
883.31	8535.93
883.48	8605.56
883.65	8650.62
883.83	8607.61
884.00	8585.08
884.17	8519.55
884.34	8677.24
884.51	8540.03
884.69	8726.39
884.86	8525.69
885.03	8652.67
885.20	8533.89
885.38	8675.20
885.55	8419.20
885.72	8451.97
885.89	8431.49
886.06	8517.50
886.24	8378.24
886.41	8490.88
886.58	8486.78
886.75	8642.43
886.92	8355.71
887.10	8574.85
887.27	8368.00
887.44	8445.82
887.61	8460.16
887.78	8386.43
887.95	8464.25
888.13	8411.01
888.30	8333.18
888.47	8208.26
888.64	8302.47
888.81	8224.64
888.99	8222.59
889.16	8238.98
889.33	8009.61
889.50	8200.07
889.67	8320.90
889.84	8050.57
890.01	7985.03
890.19	8124.29
890.36	8087.43
890.53	8083.33
890.70	8023.94
890.87	8101.76
891.04	7911.30
891.22	8028.04
891.39	7952.26
891.56	8101.76
891.73	7956.36
891.90	8017.80
892.07	7946.12
892.24	8023.94
892.42	8030.09
892.59	7962.50
892.76	7907.21
892.93	7903.11
893.10	7819.14
893.27	7751.56
893.44	7974.79
893.61	7966.60
893.79	7882.63
893.96	8064.90
894.13	7819.14
894.30	7813.00
894.47	7774.09
894.64	7843.72
894.81	7954.31
894.98	7833.48
895.15	7671.69
895.33	7784.33
895.50	7798.66
895.67	7710.60
895.84	7706.51
896.01	7851.91
896.18	7772.04
896.35	7884.68
896.52	7796.62
896.69	7743.37
896.86	7800.71
897.04	7604.11
897.21	7845.77
897.38	7651.21
897.55	7737.23
897.72	7653.26
897.89	7675.79
898.06	7864.20
898.23	7540.62
898.40	7593.87
898.57	7630.73
898.74	7706.51
898.91	7600.01
899.08	7622.54
899.26	7708.55
899.43	7520.14
899.60	7743.37
899.77	7622.54
899.94	7550.86
900.11	7681.93
900.28	7534.48
900.45	7440.27
900.62	7491.47
900.79	7618.44
900.96	7399.31
901.13	7374.74
901.30	7499.66
901.47	7442.32
901.64	7559.05
901.81	7573.39
901.98	7554.96
902.15	7554.96
902.32	7540.62
902.49	7415.69
902.66	7522.19
902.83	7333.78
903.01	7421.84
903.18	7434.13
903.35	7534.48
903.52	7397.26
903.69	7415.69
903.86	7350.16
904.03	7409.55
904.20	7473.04
904.37	7565.20
904.54	7466.89
904.71	7333.78
904.88	7368.59
905.05	7407.50
905.22	7569.29
905.39	7397.26
905.56	7452.56
905.73	7430.03
905.90	7458.70
906.07	7370.64
906.24	7376.78
906.41	7358.35
906.58	7614.35
906.75	7309.20
906.92	7225.23
907.09	7333.78
907.26	7249.81
907.43	7311.25
907.60	7274.38
907.77	7341.97
907.93	7323.54
908.10	7313.30
908.27	7477.13
908.44	7280.53
908.61	7333.78
908.78	7243.67
908.95	7149.46
909.12	7192.47
909.29	7323.54
909.46	7284.62
909.63	7258.00
909.80	7272.34
909.97	7296.91
910.14	7276.43
910.31	7176.08
910.48	7307.15
910.65	7206.80
910.82	7137.17
910.99	7147.41
911.16	7135.12
911.33	7288.72
911.50	7180.18
911.66	7004.05
911.83	7149.46
912.00	7124.88
912.17	7075.73
912.34	7106.45
912.51	7016.34
912.68	7124.88
912.85	7137.17
913.02	7141.27
913.19	6920.09
913.36	7020.44
913.53	7100.31
913.70	6965.14
913.86	7028.63
914.03	6950.81
914.20	6963.09
914.37	6829.98
914.54	6932.37
914.71	6938.52
914.88	6887.32
915.05	6815.64
915.22	6856.60
915.39	6844.31
915.55	6836.12
915.72	6766.49
915.89	6971.29
916.06	6743.96
916.23	6760.34
916.40	6746.01
916.57	6756.25
916.74	6797.21
916.91	6610.84
917.07	6565.79
917.24	6686.62
917.41	6725.53
917.58	6651.80
917.75	6637.47
917.92	6514.59
918.09	6440.86
918.26	6680.47
918.42	6512.54
918.59	6430.62
918.76	6612.89
918.93	6559.64
919.10	6383.52
919.27	6510.49
919.44	6514.59
919.60	6422.43
919.77	6260.64
919.94	6223.78
920.11	6268.83
920.28	6285.22
920.45	6293.41
920.61	6211.49
920.78	6444.96
920.95	6332.32
921.12	6074.28
921.29	6188.96
921.46	6092.71
921.62	6135.71
921.79	6256.54
921.96	6201.25
922.13	6109.09
922.30	6025.12
922.47	6061.99
922.63	5969.83
922.80	6018.98
922.97	6000.55
923.14	5883.81
923.31	5965.73
923.47	5953.45
923.64	5875.62
923.81	5894.05
923.98	6111.14
924.15	5951.40
924.32	5846.95
924.48	5834.66
924.65	5953.45
924.82	5824.42
924.99	5795.75
925.15	5670.83
925.32	5738.41
925.49	5767.08
925.66	5851.05
925.83	5627.82
925.99	5752.74
926.16	5648.30
926.33	5752.74
926.50	5484.46
926.67	5525.42
926.83	5427.12
927.00	5504.94
927.17	5535.66
927.34	5593.00
927.50	5447.60
927.67	5339.05
927.84	5451.69
928.01	5498.80
928.17	5375.92
928.34	5398.45
928.51	5232.56
928.68	5259.18
928.84	5203.89
929.01	5167.03
929.18	5175.22
929.35	5380.01
929.51	5414.83
929.68	5240.75
929.85	5203.89
930.02	5070.77
930.18	5263.28
930.35	5103.54
930.52	5093.30
930.69	5185.46
930.85	5105.59
931.02	5005.24
931.19	5044.15
931.36	4949.94
931.52	5017.52
931.69	4972.47
931.86	5113.78
932.02	4853.69
932.19	4954.04
932.36	4870.07
932.53	4902.84
932.69	4843.45
932.86	4868.02
933.03	4804.53
933.19	4714.42
933.36	4757.43
933.53	4724.66
933.70	4655.03
933.86	4618.17
934.03	4788.15
934.20	4587.45
934.36	4556.73
934.53	4519.87
934.70	4542.39
934.86	4435.90
935.03	4396.99
935.20	4530.11
935.36	4417.47
935.53	4366.27
935.70	4349.89
935.86	4358.08
936.03	4210.62
936.20	4241.34
936.36	4227.01
936.53	4298.69
936.70	4251.58
936.86	4319.17
937.03	4091.84
937.20	3968.96
937.36	4028.35
937.53	4044.74
937.70	4016.07
937.86	4040.64
938.03	3891.14
938.20	3958.72
938.36	3944.39
938.53	3905.48
938.70	3837.89
938.86	3821.51
939.03	3684.30
939.20	3678.15
939.36	3692.49
939.53	3612.62
939.70	3768.26
939.86	3653.58
940.03	3549.13
940.19	3626.95
940.36	3477.45
940.53	3450.83
940.69	3444.68
940.86	3420.11
941.03	3481.55
941.19	3346.38
941.36	3319.76
941.52	3448.78
941.69	3248.08
941.86	3286.99
942.02	3223.50
942.19	3246.03
942.35	3284.94
942.52	3145.68
942.69	3190.74
942.85	3170.26
943.02	3127.25
943.18	3074.00
943.35	3168.21
943.52	2996.18
943.68	3051.47
943.85	2969.55
944.01	2998.23
944.18	2992.08
944.35	3037.14
944.51	2906.07
944.68	3037.14
944.84	2965.46
945.01	2904.02
945.17	2856.92
945.34	2867.16
945.51	2990.03
945.67	3030.99
945.84	2947.03
946.00	2826.20
946.17	2846.68
946.33	2820.05
946.50	2912.21
946.67	2826.20
946.83	2858.96
947.00	2781.14
947.16	2826.20
947.33	2885.59
947.49	2803.67
947.66	2756.57
947.82	2818.00
947.99	2779.09
948.16	2793.43
948.32	2895.83
948.49	2811.86
948.65	2959.31
948.82	2795.48
948.98	2856.92
949.15	2688.98
949.31	2748.37
949.48	2760.66
949.64	2801.62
949.81	2740.18
949.97	2752.47
950.14	2748.37
950.30	2750.42
950.47	2762.71
950.63	2815.96
950.80	2707.41
950.96	2641.88
951.13	2754.52
951.30	2701.27
951.46	2787.29
951.63	2797.53
951.79	2678.74
951.96	2813.91
952.12	2777.05
952.29	2731.99
952.45	2691.03
952.62	2799.57
952.78	2770.90
952.94	2736.09
953.11	2693.08
953.27	2617.30
953.44	2758.61
953.60	2695.13
953.77	2719.70
953.93	2701.27
954.10	2742.23
954.26	2789.33
954.43	2672.60
954.59	2775.00
954.76	2729.94
954.92	2656.22
955.09	2721.75
955.25	2691.03
955.42	2736.09
955.58	2719.70
955.75	2691.03
955.91	2676.70
956.07	2691.03
956.24	2815.96
956.40	2723.80
956.57	2762.71
956.73	2795.48
956.90	2660.31
957.06	2629.59
957.23	2672.60
957.39	2691.03
957.56	2680.79
957.72	2572.25
957.88	2617.30
958.05	2731.99
958.21	2664.41
958.38	2654.17
958.54	2670.55
958.71	2762.71
958.87	2533.34
959.03	2516.95
959.20	2658.26
959.36	2613.21
959.53	2633.69
959.69	2627.54
959.85	2664.41
960.02	2588.63
960.18	2664.41
960.35	2633.69
960.51	2672.60
960.68	2490.33
960.84	2691.03
961.00	2627.54
961.17	2621.40
961.33	2564.06
961.50	2594.78
961.66	2619.35
961.82	2629.59
961.99	2529.24
962.15	2607.06
962.31	2625.50
962.48	2512.86
962.64	2504.67
962.81	2570.20
962.97	2617.30
963.13	2557.91
963.30	2516.95
963.46	2559.96
963.62	2621.40
963.79	2566.10
963.95	2676.70
964.12	2584.54
964.28	2566.10
964.44	2562.01
964.61	2555.86
964.77	2580.44
964.93	2600.92
965.10	2582.49
965.26	2537.43
965.42	2576.34
965.59	2492.38
965.75	2547.67
965.92	2484.19
966.08	2578.39
966.24	2488.28
966.41	2437.08
966.57	2562.01
966.73	2469.85
966.90	2539.48
967.06	2484.19
967.22	2437.08
967.39	2473.95
967.55	2586.58
967.71	2547.67
967.88	2445.27
968.04	2494.43
968.20	2449.37
968.37	2418.65
968.53	2480.09
968.69	2418.65
968.85	2447.32
969.02	2490.33
969.18	2578.39
969.34	2523.10
969.51	2551.77
969.67	2539.48
969.83	2435.03
970.00	2615.26
970.16	2519.00
970.32	2465.75
970.48	2488.28
970.65	2408.41
970.81	2492.38
970.97	2465.75
971.14	2387.93
971.30	2541.53
971.46	2443.23
971.63	2496.47
971.79	2461.66
971.95	2461.66
972.11	2312.16
972.28	2381.79
972.44	2455.51
972.60	2447.32
972.76	2400.22
972.93	2332.64
973.09	2498.52
973.25	2318.30
973.42	2346.97
973.58	2432.99
973.74	2371.55
973.90	2426.84
974.07	2326.49
974.23	2365.40
974.39	2414.56
974.55	2340.83
974.72	2349.02
974.88	2226.14
975.04	2494.43
975.20	2303.96
975.37	2379.74
975.53	2361.31
975.69	2422.75
975.85	2371.55
976.01	2265.05
976.18	2328.54
976.34	2334.68
976.50	2410.46
976.66	2416.60
976.83	2349.02
976.99	2318.30
977.15	2330.59
977.31	2248.67
977.47	2330.59
977.64	2330.59
977.80	2263.01
977.96	2303.96
978.12	2263.01
978.29	2330.59
978.45	2291.68
978.61	2250.72
978.77	2267.10
978.93	2217.95
979.10	2314.20
979.26	2330.59
979.42	2310.11
979.58	2238.43
979.74	2238.43
979.91	2263.01
980.07	2174.94
980.23	2273.25
980.39	2263.01
980.55	2207.71
980.71	2195.42
980.88	2205.66
981.04	2215.90
981.20	2256.86
981.36	2318.30
981.52	2289.63
981.68	2203.61
981.85	2285.53
982.01	2230.24
982.17	2273.25
982.33	2236.38
982.49	2222.05
982.65	2181.09
982.82	2267.10
982.98	2236.38
983.14	2179.04
983.30	2263.01
983.46	2215.90
983.62	2217.95
983.79	2181.09
983.95	2181.09
984.11	2158.56
984.27	2289.63
984.43	2246.62
984.59	2185.18
984.75	2254.81
984.91	2258.91
985.08	2103.26
985.24	2152.42
985.40	2140.13
985.56	2236.38
985.72	2263.01
985.88	2195.42
986.04	2211.81
986.20	2185.18
986.37	2093.02
986.53	2078.69
986.69	2291.68
986.85	2138.08
987.01	2164.70
987.17	2158.56
987.33	2172.89
987.49	2162.66
987.65	2115.55
987.82	2117.60
987.98	2152.42
988.14	2222.05
988.30	2162.66
988.46	2193.37
988.62	2127.84
988.78	2105.31
988.94	2136.03
989.10	2138.08
989.26	2064.35
989.42	2181.09
989.59	2185.18
989.75	2062.30
989.91	2199.52
990.07	1984.48
990.23	2211.81
990.39	2123.74
990.55	2217.95
990.71	2129.89
990.87	2007.01
991.03	2082.78
991.19	2156.51
991.35	2099.17
991.51	2133.98
991.67	2066.40
991.83	2166.75
992.00	2056.16
992.16	2076.64
992.32	2117.60
992.48	2119.65
992.64	2088.93
992.80	2099.17
992.96	2066.40
993.12	2095.07
993.28	2078.69
993.44	2015.20
993.60	2050.02
993.76	2047.97
993.92	2123.74
994.08	2043.87
994.24	2066.40
994.40	2097.12
994.56	2068.45
994.72	2031.58
994.88	2066.40
995.04	2072.54
995.20	2045.92
995.36	2060.26
995.52	2113.50
995.68	2097.12
995.84	2062.30
996.00	2131.94
996.16	2064.35
996.32	2031.58
996.48	2062.30
996.64	2133.98
996.80	2021.35
996.96	2066.40
997.12	2129.89
997.28	1972.19
997.44	1951.71
997.60	1939.43
997.76	2013.15
997.92	1996.77
998.08	1953.76
998.24	1959.91
998.40	2023.39
998.56	1951.71
998.72	1976.29
998.88	2025.44
999.04	2027.49
999.20	2029.54
999.36	2031.58
999.52	2099.17
999.68	2023.39
999.84	2015.20
1000.00	1972.19
1000.16	1953.76
1000.32	1976.29
1000.48	1972.19
1000.64	1925.09
1000.80	1912.80
1000.95	1941.47
1001.11	1986.53
1001.27	1925.09
1001.43	2017.25
1001.59	1923.04
1001.75	1910.75
1001.91	1937.38
1002.07	1933.28
1002.23	2050.02
1002.39	1945.57
1002.55	1849.32
1002.71	1982.43
1002.87	1955.81
1003.03	1869.80
1003.19	1935.33
1003.34	1910.75
1003.50	1976.29
1003.66	1949.67
1003.82	2017.25
1003.98	1953.76
1004.14	1978.34
1004.30	1877.99
1004.46	1966.05
1004.62	1945.57
1004.78	1884.13
1004.94	1923.04
1005.09	1935.33
1005.25	1939.43
1005.41	1906.66
1005.57	1851.36
1005.73	1855.46
1005.89	1892.32
1006.05	1871.84
1006.21	1916.90
1006.37	1923.04
1006.52	1953.76
1006.68	1925.09
1006.84	1961.95
1007.00	1929.19
1007.16	1884.13
1007.32	1863.65
1007.48	1830.88
1007.64	1982.43
1007.79	1826.79
1007.95	1890.28
1008.11	1869.80
1008.27	1871.84
1008.43	1880.04
1008.59	1888.23
1008.75	1880.04
1008.91	1859.56
1009.06	1902.56
1009.22	1816.55
1009.38	1867.75
1009.54	1832.93
1009.70	1875.94
1009.86	1865.70
1010.01	1910.75
1010.17	1888.23
1010.33	1843.17
1010.49	1804.26
1010.65	1890.28
1010.81	1863.65
1010.96	1910.75
1011.12	1800.16
1011.28	1798.12
1011.44	1900.52
1011.60	1896.42
1011.76	1826.79
1011.91	1855.46
1012.07	1720.29
1012.23	1837.03
1012.39	1802.21
1012.55	1910.75
1012.71	1775.59
1012.86	1830.88
1013.02	1783.78
1013.18	1769.44
1013.34	1845.22
1013.50	1896.42
1013.65	1920.99
1013.81	1726.44
1013.97	1767.40
1014.13	1806.31
1014.29	1832.93
1014.44	1814.50
1014.60	1806.31
1014.76	1771.49
1014.92	1816.55
1015.07	1812.45
1015.23	1814.50
1015.39	1806.31
1015.55	1783.78
1015.71	1812.45
1015.86	1810.40
1016.02	1724.39
1016.18	1744.87
1016.34	1783.78
1016.49	1816.55
1016.65	1808.36
1016.81	1810.40
1016.97	1841.12
1017.12	1757.16
1017.28	1781.73
1017.44	1834.98
1017.60	1732.58
1017.75	1822.69
1017.91	1832.93
1018.07	1824.74
1018.23	1806.31
1018.38	1810.40
1018.54	1847.27
1018.70	1779.68
1018.86	1720.29
1019.01	1759.21
1019.17	1785.83
1019.33	1847.27
1019.49	1716.20
1019.64	1744.87
1019.80	1841.12
1019.96	1742.82
1020.12	1697.77
1020.27	1710.05
1020.43	1748.97
1020.59	1796.07
1020.74	1830.88
1020.90	1785.83
1021.06	1673.19
1021.22	1736.68
1021.37	1689.57
1021.53	1644.52
1021.69	1804.26
1021.84	1703.91
1022.00	1767.40
1022.16	1728.49
1022.31	1712.10
1022.47	1789.92
1022.63	1787.88
1022.79	1683.43
1022.94	1695.72
1023.10	1843.17
1023.26	1787.88
1023.41	1665.00
1023.57	1708.01
1023.73	1767.40
1023.88	1742.82
1024.04	1734.63
1024.20	1689.57
1024.35	1712.10
1024.51	1734.63
1024.67	1767.40
1024.82	1720.29
1024.98	1697.77
1025.14	1724.39
1025.29	1712.10
1025.45	1763.30
1025.61	1638.38
1025.76	1736.68
1025.92	1685.48
1026.08	1734.63
1026.23	1708.01
1026.39	1755.11
1026.55	1738.73
1026.70	1751.01
1026.86	1701.86
1027.02	1675.24
1027.17	1806.31
1027.33	1771.49
1027.48	1714.15
1027.64	1646.57
1027.80	1597.42
1027.95	1726.44
1028.11	1652.71
1028.27	1728.49
1028.42	1710.05
1028.58	1712.10
1028.73	1628.14
1028.89	1585.13
1029.05	1679.33
1029.20	1759.21
>>>>>End Processed Spectral Data<<<<<
