SpectraSuite Data File
++++++++++++++++++++++++++++++++++++
Date: Tue Jun 13 11:50:59 CEST 2017
User: INFO_000
Dark Spectrum Present: No
Reference Spectrum Present: No
Number of Sampled Component Spectra: 1
Spectrometers: USB4H00879
Integration Time (usec): 30000 (USB4H00879)
Spectra Averaged: 1 (USB4H00879)
Boxcar Smoothing: 0 (USB4H00879)
Correct for Electrical Dark: No (USB4H00879)
Strobe/Lamp Enabled: No (USB4H00879)
Correct for Detector Non-linearity: No (USB4H00879)
Correct for Stray Light: No (USB4H00879)
Number of Pixels in Processed Spectrum: 3648
>>>>>Begin Processed Spectral Data<<<<<
345.13	1400.81
345.34	1400.81
345.56	1400.81
345.78	1255.40
345.99	1322.99
346.21	1521.64
346.42	1552.36
346.64	1454.06
346.86	1548.26
347.07	1554.41
347.29	1484.78
347.50	1519.59
347.72	1490.92
347.94	1468.39
348.15	1472.49
348.37	1503.21
348.59	1527.78
348.80	1466.35
349.02	1628.14
349.23	1677.29
349.45	1728.49
349.67	1705.96
349.88	1556.46
350.10	1705.96
350.31	1638.38
350.53	1638.38
350.75	1691.62
350.96	1605.61
351.18	1679.33
351.39	1595.37
351.61	1671.14
351.82	1615.85
352.04	1665.00
352.26	1675.24
352.47	1660.90
352.69	1613.80
352.90	1621.99
353.12	1669.09
353.34	1673.19
353.55	1712.10
353.77	1695.72
353.98	1644.52
354.20	1605.61
354.41	1673.19
354.63	1716.20
354.85	1736.68
355.06	1652.71
355.28	1599.46
355.49	1679.33
355.71	1675.24
355.92	1714.15
356.14	1699.81
356.35	1662.95
356.57	1697.77
356.79	1720.29
357.00	1691.62
357.22	1671.14
357.43	1642.47
357.65	1683.43
357.86	1722.34
358.08	1667.05
358.29	1761.25
358.51	1714.15
358.72	1652.71
358.94	1753.06
359.16	1720.29
359.37	1746.92
359.59	1642.47
359.80	1751.01
360.02	1708.01
360.23	1791.97
360.45	1789.92
360.66	1720.29
360.88	1669.09
361.09	1734.63
361.31	1826.79
361.52	1689.57
361.74	1808.36
361.95	1789.92
362.17	1699.81
362.38	1796.07
362.60	1708.01
362.81	1816.55
363.03	1665.00
363.24	1730.53
363.46	1818.60
363.67	1789.92
363.89	1800.16
364.10	1808.36
364.32	1828.84
364.53	1744.87
364.75	1673.19
364.96	1814.50
365.18	1740.77
365.39	1742.82
365.61	1783.78
365.82	1832.93
366.04	1771.49
366.25	1802.21
366.47	1806.31
366.68	1767.40
366.90	1822.69
367.11	1855.46
367.33	1877.99
367.54	1875.94
367.76	1757.16
367.97	1839.08
368.19	1816.55
368.40	1865.70
368.62	1830.88
368.83	1791.97
369.05	1812.45
369.26	1777.64
369.48	1820.64
369.69	1794.02
369.91	1857.51
370.12	1734.63
370.33	1914.85
370.55	1777.64
370.76	1853.41
370.98	1839.08
371.19	1857.51
371.41	1918.95
371.62	1957.86
371.84	1884.13
372.05	1904.61
372.27	1957.86
372.48	1748.97
372.69	1853.41
372.91	1933.28
373.12	1914.85
373.34	1910.75
373.55	1961.95
373.77	1957.86
373.98	1943.52
374.20	1994.72
374.41	1988.58
374.62	1904.61
374.84	1941.47
375.05	1980.39
375.27	1980.39
375.48	2009.06
375.70	2013.15
375.91	2031.58
376.12	2072.54
376.34	1951.71
376.55	1990.63
376.77	2074.59
376.98	1986.53
377.19	1980.39
377.41	1957.86
377.62	2054.11
377.84	1980.39
378.05	2088.93
378.27	2025.44
378.48	2039.78
378.69	2095.07
378.91	2029.54
379.12	2107.36
379.34	2054.11
379.55	2121.70
379.76	2117.60
379.98	2121.70
380.19	2052.06
380.41	2127.84
380.62	2136.03
380.83	2095.07
381.05	2076.64
381.26	2050.02
381.47	2115.55
381.69	2097.12
381.90	2209.76
382.12	2189.28
382.33	2140.13
382.54	2295.77
382.76	2152.42
382.97	2156.51
383.19	2248.67
383.40	2197.47
383.61	2109.41
383.83	2203.61
384.04	2244.57
384.25	2213.85
384.47	2248.67
384.68	2203.61
384.89	2224.09
385.11	2176.99
385.32	2205.66
385.54	2176.99
385.75	2306.01
385.96	2283.49
386.18	2273.25
386.39	2285.53
386.60	2314.20
386.82	2281.44
387.03	2283.49
387.24	2338.78
387.46	2336.73
387.67	2363.36
387.88	2394.08
388.10	2375.64
388.31	2424.80
388.52	2416.60
388.74	2410.46
388.95	2426.84
389.16	2387.93
389.38	2381.79
389.59	2467.80
389.80	2463.71
390.02	2500.57
390.23	2562.01
390.44	2475.99
390.66	2455.51
390.87	2412.51
391.08	2531.29
391.30	2512.86
391.51	2437.08
391.72	2502.62
391.94	2531.29
392.15	2547.67
392.36	2625.50
392.58	2494.43
392.79	2490.33
393.00	2633.69
393.22	2682.84
393.43	2705.37
393.64	2592.73
393.85	2688.98
394.07	2654.17
394.28	2672.60
394.49	2664.41
394.71	2688.98
394.92	2650.07
395.13	2779.09
395.35	2691.03
395.56	2752.47
395.77	2746.33
395.98	2858.96
396.20	2887.64
396.41	2703.32
396.62	2734.04
396.84	2772.95
397.05	2822.10
397.26	2906.07
397.47	2836.44
397.69	2865.11
397.90	2895.83
398.11	2932.69
398.32	2830.29
398.54	2858.96
398.75	2926.55
398.96	2826.20
399.18	3016.66
399.39	2938.84
399.60	2973.65
399.81	2955.22
400.03	2940.88
400.24	3180.50
400.45	2897.88
400.66	3162.06
400.88	2983.89
401.09	3020.75
401.30	3127.25
401.51	3127.25
401.73	3080.14
401.94	3176.40
402.15	3119.06
402.36	3121.10
402.58	3051.47
402.79	3182.54
403.00	3098.58
403.21	3112.91
403.43	3258.32
403.64	3256.27
403.85	3170.26
404.06	3131.34
404.27	3106.77
404.49	3211.22
404.70	3217.36
404.91	3239.89
405.12	3332.05
405.34	3170.26
405.55	3401.68
405.76	3250.13
405.97	3342.28
406.19	3401.68
406.40	3334.09
406.61	3383.24
406.82	3368.91
407.03	3432.40
407.25	3319.76
407.46	3491.79
407.67	3463.12
407.88	3461.07
408.09	3393.48
408.31	3479.50
408.52	3510.22
408.73	3405.77
408.94	3422.16
409.15	3459.02
409.37	3440.59
409.58	3516.36
409.79	3575.75
410.00	3553.23
410.21	3635.14
410.43	3602.38
410.64	3567.56
410.85	3583.95
411.06	3579.85
411.27	3706.82
411.48	3626.95
411.70	3610.57
411.91	3768.26
412.12	3784.65
412.33	3708.87
412.54	3678.15
412.76	3923.91
412.97	3706.82
413.18	3729.35
413.39	3762.12
413.60	3702.73
413.81	3788.74
414.03	3766.21
414.24	3719.11
414.45	3934.15
414.66	3852.23
414.87	3909.57
415.08	3764.17
415.30	3944.39
415.51	4024.26
415.72	3690.44
415.93	3772.36
416.14	3938.24
416.35	4061.12
416.56	3960.77
416.78	3880.90
416.99	3995.59
417.20	4026.31
417.41	3968.96
417.62	4038.59
417.83	4075.46
418.04	4034.50
418.26	4173.76
418.47	4042.69
418.68	4208.58
418.89	4118.47
419.10	4272.06
419.31	4048.83
419.52	4220.86
419.73	4218.82
419.95	4253.63
420.16	4063.17
420.37	4308.93
420.58	4298.69
420.79	4251.58
421.00	4349.89
421.21	4472.76
421.42	4229.06
421.63	4265.92
421.85	4491.20
422.06	4519.87
422.27	4485.05
422.48	4409.28
422.69	4478.91
422.90	4437.95
423.11	4607.93
423.32	4550.59
423.53	4618.17
423.75	4677.56
423.96	4683.70
424.17	4616.12
424.38	4956.08
424.59	4720.57
424.80	4947.89
425.01	4767.67
425.22	4896.69
425.43	4704.18
425.64	4808.63
425.85	4935.60
426.06	4933.56
426.28	4835.25
426.49	4825.01
426.70	4863.93
426.91	5023.67
427.12	5023.67
427.33	5015.48
427.54	5013.43
427.75	5007.28
427.96	5160.88
428.17	5191.60
428.38	5203.89
428.59	5263.28
428.80	5304.24
429.01	5291.95
429.23	5294.00
429.44	5402.54
429.65	5418.93
429.86	5390.25
430.07	5371.82
430.28	5367.73
430.49	5480.36
430.70	5605.29
430.91	5541.80
431.12	5486.51
431.33	5593.00
431.54	5506.99
431.75	5705.64
431.96	5621.67
432.17	5681.07
432.38	5597.10
432.59	5826.47
432.80	5683.11
433.01	5918.63
433.22	5892.01
433.43	5857.19
433.64	5889.96
433.85	5779.37
434.06	5867.43
434.27	5781.42
434.49	6041.51
434.70	6049.70
434.91	5918.63
435.12	6115.23
435.33	6107.04
435.54	6150.05
435.75	5959.59
435.96	6061.99
436.17	5984.16
436.38	6195.11
436.59	6098.85
436.80	6184.87
437.01	6358.94
437.22	6469.53
437.43	6272.93
437.64	6008.74
437.85	6410.14
438.06	6510.49
438.27	6301.60
438.48	6283.17
438.69	6375.33
438.90	6479.77
439.11	6373.28
439.32	6473.63
439.53	6500.25
439.74	6592.41
439.95	6602.65
440.16	6723.48
440.37	6442.91
440.57	6408.09
440.78	6694.81
440.99	6746.01
441.20	6608.80
441.41	6608.80
441.62	6709.15
441.83	6504.35
442.04	6963.09
442.25	6862.74
442.46	6799.26
442.67	7100.31
442.88	7352.21
443.09	6782.87
443.30	7038.87
443.51	6883.22
443.72	7247.76
443.93	7032.72
444.14	7188.37
444.35	6887.32
444.56	7118.74
444.77	7245.71
444.98	7171.99
445.19	7305.10
445.40	7296.91
445.61	7255.95
445.81	7491.47
446.02	7255.95
446.23	7169.94
446.44	7274.38
446.65	7489.42
446.86	7436.17
447.07	7376.78
447.28	7600.01
447.49	7733.13
447.70	7339.92
447.91	7600.01
448.12	7587.72
448.33	7679.88
448.54	7823.24
448.74	7442.32
448.95	7788.43
449.16	7544.72
449.37	7989.13
449.58	7813.00
449.79	7890.82
450.00	7739.27
450.21	7911.30
450.42	8062.85
450.63	8206.21
450.84	7872.39
451.05	8030.09
451.25	8183.68
451.46	7962.50
451.67	8171.40
451.88	8138.63
452.09	8318.85
452.30	8130.44
452.51	8277.89
452.72	8388.48
452.93	8695.68
453.13	8202.11
453.34	8306.56
453.55	8497.02
453.76	8484.73
453.97	8841.08
454.18	8529.79
454.39	8818.55
454.60	8658.81
454.81	8634.24
455.01	8980.34
455.22	8406.91
455.43	8773.50
455.64	9037.69
455.85	9002.87
456.06	9295.73
456.27	8906.62
456.48	9006.97
456.68	8970.10
456.89	9074.55
457.10	9242.48
457.31	9285.49
457.52	9072.50
457.73	9434.99
457.94	9547.63
458.14	9322.35
458.35	9717.61
458.56	9650.03
458.77	9432.94
458.98	9658.22
459.19	9668.46
459.39	9719.66
459.60	9750.38
459.81	9684.84
460.02	9828.20
460.23	9723.76
460.44	10209.12
460.65	10055.53
460.85	10135.40
461.06	10196.84
461.27	9820.01
461.48	10557.28
461.69	10471.26
461.89	10049.38
462.10	10674.01
462.31	10235.75
462.52	10196.84
462.73	10362.72
462.94	10690.40
463.14	10841.95
463.35	10671.97
463.56	10964.82
463.77	10893.15
463.98	10723.16
464.18	10786.65
464.39	10973.02
464.60	11339.60
464.81	11083.61
465.02	11161.43
465.23	11319.12
465.43	11177.81
465.64	11673.42
465.85	11384.66
466.06	11179.86
466.27	11890.51
466.47	11800.40
466.68	11738.96
466.89	11650.89
467.10	12009.29
467.30	11571.02
467.51	11878.22
467.72	12205.89
467.93	12013.38
468.14	12218.18
468.34	12287.81
468.55	12402.50
468.76	12316.48
468.97	12394.31
469.17	12611.39
469.38	12769.09
469.59	13025.08
469.80	12726.08
470.01	12744.51
470.21	12943.16
470.42	13006.65
470.63	13092.66
470.84	12934.97
471.04	13184.82
471.25	13184.82
471.46	13274.93
471.67	13537.07
471.87	13455.15
472.08	13545.27
472.29	13797.17
472.50	13594.42
472.70	13653.81
472.91	13793.07
473.12	14225.19
473.33	14219.05
473.53	14241.57
473.74	14235.43
473.95	14440.23
474.16	14786.33
474.36	14694.18
474.57	15021.85
474.78	14974.75
474.99	14831.39
475.19	14688.03
475.40	15277.85
475.61	15349.53
475.81	15470.36
476.02	15582.99
476.23	15185.69
476.44	15472.40
476.64	15640.34
476.85	15984.40
477.06	15945.48
477.27	16277.26
477.47	16340.74
477.68	16389.89
477.89	16469.76
478.09	16471.81
478.30	16713.47
478.51	16776.96
478.71	17014.52
478.92	16752.38
479.13	16719.62
479.34	17401.59
479.54	17188.60
479.75	17309.43
479.96	17295.10
480.16	17684.21
480.37	17813.23
480.58	17809.14
480.78	18165.48
480.99	18034.41
481.20	18265.83
481.41	18405.10
481.61	18425.57
481.82	18509.54
482.03	18669.28
482.23	18507.49
482.44	19031.77
482.65	18689.76
482.85	18855.65
483.06	19232.47
483.27	19334.87
483.47	19318.49
483.68	19439.32
483.89	19680.98
484.09	19535.57
484.30	19693.27
484.51	19918.54
484.71	20029.13
484.92	20176.59
485.13	20221.64
485.33	20172.49
485.54	20270.79
485.75	20991.68
485.95	20627.14
486.16	20522.69
486.37	21210.81
486.57	20852.42
486.78	21153.47
486.98	21008.06
487.19	21440.18
487.40	21675.70
487.60	21425.85
487.81	21860.02
488.02	21829.30
488.22	21567.16
488.43	21823.16
488.64	22054.58
488.84	22443.69
489.05	22419.11
489.25	22222.51
489.46	22687.40
489.67	22660.77
489.87	22601.38
490.08	22814.37
490.29	22920.87
490.49	23305.88
490.70	23238.30
490.90	23461.53
491.11	23049.89
491.32	23156.38
491.52	23441.05
491.73	23684.76
491.94	23924.37
492.14	24094.35
492.35	24270.48
492.55	24116.88
492.76	24491.66
492.97	24462.99
493.17	24522.38
493.38	24430.22
493.58	24716.93
493.79	24772.23
494.00	24565.39
494.20	24952.45
494.41	25046.66
494.61	25134.72
494.82	25314.94
495.02	25335.42
495.23	25394.81
495.44	25349.76
495.64	25740.92
495.85	25882.23
496.05	25923.19
496.26	25644.66
496.47	26107.51
496.67	26068.59
496.88	26109.55
497.08	25790.07
497.29	26394.22
497.49	26449.52
497.70	26639.98
497.91	26551.91
498.11	26812.01
498.32	27100.77
498.52	27033.19
498.73	27332.19
498.93	27164.26
499.14	27420.25
499.34	27246.18
499.55	27532.89
499.76	27197.02
499.96	27706.97
500.17	27539.04
500.37	27752.02
500.58	27758.17
500.78	28053.08
500.99	28065.36
501.19	28411.47
501.40	28300.88
501.60	28313.17
501.81	28366.42
502.02	28386.89
502.22	28059.22
502.43	28517.96
502.63	28403.28
502.84	28771.91
503.04	28708.43
503.25	28833.35
503.45	29324.86
503.66	29357.63
503.86	28773.96
504.07	29400.64
504.27	29326.91
504.48	29677.12
504.68	29218.37
504.89	29933.11
505.09	29775.42
505.30	30103.09
505.50	29670.97
505.71	30039.61
505.91	29939.26
506.12	30199.35
506.32	29998.65
506.53	30391.86
506.73	30359.09
506.94	30586.41
507.14	30144.05
507.35	30316.08
507.55	30572.08
507.76	30623.28
507.96	30471.73
508.17	30797.35
508.37	30727.72
508.58	30819.88
508.78	30799.40
508.99	30938.66
509.19	31157.80
509.40	31122.98
509.60	31092.26
509.81	31041.06
510.01	31209.00
510.22	31110.69
510.42	31452.70
510.63	31444.51
510.83	31684.12
511.04	31510.05
511.24	31827.48
511.44	31966.74
511.65	31690.27
511.85	31784.48
512.06	31884.83
512.26	31964.70
512.47	32140.82
512.67	32120.34
512.88	32230.93
513.08	31852.06
513.29	32638.48
513.49	32511.50
513.69	31989.27
513.90	32558.61
514.10	32744.97
514.31	32194.07
514.51	32757.26
514.72	32601.61
514.92	32894.47
515.13	32945.67
515.33	32669.20
515.53	32962.06
515.74	32712.20
515.94	33089.03
516.15	33218.05
516.35	32970.25
516.56	33228.29
516.76	33054.22
516.96	33320.45
517.17	33527.30
517.37	33160.71
517.58	33719.81
517.78	33469.95
517.99	33803.77
518.19	33801.72
518.39	33865.21
518.60	34268.66
518.80	33879.55
519.01	33945.08
519.21	33906.17
519.41	34117.11
519.62	34027.00
519.82	33926.65
520.03	34711.02
520.23	34921.96
520.43	34397.68
520.64	35102.18
520.84	34747.89
521.05	34246.13
521.25	34895.34
521.45	35253.73
521.66	35196.39
521.86	35413.48
522.07	35028.46
522.27	35460.58
522.47	35120.62
522.68	35642.85
522.88	35317.22
523.08	35483.11
523.29	35927.52
523.49	36066.78
523.70	36171.22
523.90	36040.15
524.10	35937.76
524.31	36308.44
524.51	35778.01
524.71	36586.96
524.92	36351.45
525.12	36793.81
525.33	36679.12
525.53	36849.10
525.73	36713.94
525.94	36754.90
526.14	36996.56
526.34	37057.99
526.55	37082.57
526.75	36945.36
526.95	37502.40
527.16	37549.51
527.36	37334.47
527.56	37795.26
527.77	38122.94
527.97	37742.02
528.17	37606.85
528.38	37922.24
528.58	37989.82
528.78	38477.24
528.99	37934.53
529.19	38507.96
529.39	38352.31
529.60	38774.19
529.80	38655.41
530.00	38184.38
530.21	38682.03
530.41	38890.93
530.61	38663.60
530.82	39304.62
531.02	38948.27
531.22	39157.16
531.43	39462.31
531.63	39370.15
531.83	39382.44
532.04	40185.24
532.24	39482.79
532.44	40013.21
532.64	39863.71
532.85	40465.81
533.05	39867.81
533.25	40465.81
533.46	40334.74
533.66	40598.93
533.86	40684.95
534.07	40699.28
534.27	40842.64
534.47	41268.62
534.67	41008.53
534.88	40758.67
535.08	41233.80
535.28	41133.45
535.49	41192.84
535.69	42007.94
535.89	41721.22
536.09	41512.33
536.30	41954.69
536.50	41913.73
536.70	41784.71
536.91	41936.26
537.11	42171.77
537.31	42294.65
537.51	42468.73
537.72	42708.34
537.92	42435.96
538.12	42710.39
538.32	42407.29
538.53	42757.49
538.73	42810.74
538.93	42982.77
539.13	42927.47
539.34	42993.01
539.54	43095.41
539.74	43484.52
539.94	43283.82
540.15	43117.93
540.35	43699.56
540.55	43693.41
540.75	43406.70
540.96	43619.69
541.16	43939.17
541.36	44070.24
541.56	43672.93
541.77	44154.21
541.97	43937.12
542.17	44119.39
542.37	44164.45
542.58	44627.29
542.78	44449.11
542.98	44506.46
543.18	44592.47
543.38	44860.76
543.59	44965.20
543.79	44502.36
543.99	45053.26
544.19	44895.57
544.40	44608.86
544.60	45503.82
544.80	45098.32
545.00	45213.01
545.20	45475.15
545.41	45270.35
545.61	44948.82
545.81	45579.59
546.01	45581.64
546.21	45325.64
546.42	45423.95
546.62	45729.09
546.82	46265.66
547.02	45761.86
547.22	45786.44
547.43	45669.70
547.63	46097.73
547.83	46032.19
548.03	46183.74
548.23	46099.78
548.44	45999.43
548.64	46554.43
548.84	46419.26
549.04	46298.43
549.24	46210.37
549.45	46798.13
549.65	46196.03
549.85	46249.28
550.05	46728.50
550.25	46525.75
550.45	47074.61
550.66	46433.60
550.86	47088.95
551.06	47367.47
551.26	47019.31
551.46	47156.53
551.66	47381.80
551.87	46953.78
552.07	47064.37
552.27	47263.02
552.47	47240.50
552.67	47465.77
552.87	47367.47
553.07	47553.83
553.28	47600.94
553.48	47842.60
553.68	47699.24
553.88	47953.19
554.08	48039.20
554.28	47789.35
554.48	47478.06
554.69	47725.86
554.89	47519.02
555.09	47723.82
555.29	47789.35
555.49	48348.45
555.69	47725.86
555.89	47904.04
556.10	48340.25
556.30	47967.52
556.50	48121.12
556.70	47846.69
556.90	48180.51
557.10	48344.35
557.30	48076.07
557.50	48174.37
557.70	48182.56
557.91	48284.96
558.11	48561.44
558.31	48567.58
558.51	48071.97
558.71	48608.54
558.91	48944.41
559.11	48184.61
559.31	48577.82
559.51	48528.67
559.72	48534.81
559.92	49075.48
560.12	48471.32
560.32	48899.35
560.52	48760.09
560.72	48631.07
560.92	49560.84
561.12	48784.66
561.32	49638.67
561.52	48809.24
561.72	49544.46
561.93	48686.36
562.13	49259.79
562.33	48821.53
562.53	49659.15
562.73	48919.83
562.93	49138.96
563.13	49397.01
563.33	49038.61
563.53	49472.78
563.73	49009.94
563.93	49149.20
564.13	49710.35
564.33	49341.71
564.53	49460.49
564.74	49337.62
564.94	49560.84
565.14	49806.60
565.34	49425.68
565.54	49970.44
565.74	49906.95
565.94	49947.91
566.14	49745.16
566.34	49739.02
566.54	50224.39
566.74	49716.49
566.94	50124.04
567.14	50013.44
567.34	49364.24
567.54	49947.91
567.74	49710.35
567.94	49540.36
568.14	50044.16
568.34	50298.11
568.54	49882.37
568.74	50248.96
568.94	50005.25
569.14	50220.29
569.34	50384.13
569.54	50836.73
569.75	50164.99
569.95	50203.91
570.15	50377.98
570.35	50554.11
570.55	50478.33
570.75	50011.40
570.95	50609.40
571.15	50371.84
571.35	50554.11
571.55	50558.20
571.75	50445.57
571.95	50482.43
572.15	50525.44
572.35	50916.60
572.55	50621.69
572.75	51131.64
572.95	50732.28
573.15	50316.54
573.35	50646.27
573.55	50904.31
573.75	51107.06
573.95	51074.29
574.15	50640.12
574.35	51240.18
574.55	51334.38
574.75	51068.15
574.95	51082.48
575.15	51092.72
575.34	51430.64
575.54	51791.08
575.74	51414.26
575.94	51451.12
576.14	51748.07
576.34	51684.59
576.54	52032.74
576.74	51318.00
576.94	51571.95
577.14	51885.29
577.34	51725.55
577.54	51358.96
577.74	52055.27
577.94	51528.94
578.14	51680.49
578.34	51885.29
578.54	51494.13
578.74	52116.71
578.94	51754.22
579.14	51879.14
579.34	51850.47
579.54	52100.32
579.74	52327.65
579.94	52126.95
580.13	52647.13
580.33	52382.94
580.53	52475.10
580.73	52137.19
580.93	52405.47
581.13	52460.77
581.33	52571.36
581.53	52968.66
581.73	52604.13
581.93	52901.08
582.13	52608.22
582.33	53077.21
582.53	52452.58
582.73	53019.86
582.92	52929.75
583.12	53144.79
583.32	52892.89
583.52	52819.16
583.72	52778.20
583.92	52993.24
584.12	52983.00
584.32	53802.19
584.52	53599.44
584.72	53400.79
584.92	53271.76
585.11	54041.80
585.31	53421.26
585.51	53247.19
585.71	53476.56
585.91	54097.09
586.11	53689.55
586.31	53583.05
586.51	53286.10
586.71	54023.37
586.91	53857.48
587.10	53578.96
587.30	53769.42
587.50	53697.74
587.70	53875.91
587.90	53910.73
588.10	54090.95
588.30	54084.81
588.50	54195.40
588.69	54117.57
588.89	54002.89
589.09	53990.60
589.29	54496.45
589.49	54332.61
589.69	54058.18
589.89	54265.03
590.08	54658.24
590.28	53945.54
590.48	54502.59
590.68	54803.64
590.88	54342.85
591.08	54590.66
591.28	54064.33
591.47	54572.22
591.67	54561.98
591.87	54830.27
592.07	54559.94
592.27	54598.85
592.47	54662.33
592.67	54705.34
592.86	54267.08
593.06	54742.20
593.26	54351.04
593.46	54740.16
593.66	54693.05
593.86	54965.43
594.05	54860.99
594.25	55420.08
594.45	54609.09
594.65	54971.58
594.85	55360.69
595.05	55585.97
595.24	55098.55
595.44	55342.26
595.64	55166.13
595.84	54930.62
596.04	55061.69
596.23	55231.67
596.43	55270.58
596.63	55002.30
596.83	55366.84
597.03	55850.16
597.22	55968.94
597.42	55774.38
597.62	55506.10
597.82	56050.86
598.02	55762.09
598.21	55706.80
598.41	55516.34
598.61	55860.40
598.81	55975.08
599.01	56009.90
599.20	55688.37
599.40	55878.83
599.60	56067.24
599.80	56226.98
600.00	55792.81
600.19	56136.87
600.39	55481.52
600.59	56212.65
600.79	56253.61
600.98	55993.51
601.18	56566.94
601.38	56632.48
601.58	56800.41
601.78	56648.86
601.97	56554.66
602.17	56698.01
602.37	57017.50
602.57	56558.75
602.76	56726.69
602.96	56655.01
603.16	57054.36
603.36	56882.33
603.55	56896.67
603.75	56792.22
603.95	57244.82
604.15	56904.86
604.34	57017.50
604.54	57195.67
604.74	56984.73
604.94	57582.74
605.13	56898.72
605.33	57017.50
605.53	56718.49
605.73	56941.72
605.92	57048.22
606.12	57255.06
606.32	57275.54
606.52	57275.54
606.71	56925.34
606.91	57613.46
607.11	57533.59
607.30	57091.22
607.50	57285.78
607.70	57222.29
607.90	57484.43
608.09	57447.57
608.29	57300.12
608.49	57527.44
608.68	57582.74
608.88	57812.11
609.08	57715.86
609.28	57705.62
609.47	57511.06
609.67	58254.47
609.87	57660.56
610.06	57597.07
610.26	57902.22
610.46	57695.38
610.66	57453.72
610.85	57783.44
611.05	57466.00
611.25	58182.79
611.44	57545.87
611.64	57889.93
611.84	58033.29
612.03	57619.60
612.23	57834.64
612.43	58289.29
612.62	57943.18
612.82	57822.35
613.02	57863.31
613.21	57730.19
613.41	57375.89
613.61	57951.37
613.80	57650.32
614.00	57863.31
614.20	57891.98
614.39	58086.54
614.59	57676.94
614.79	57898.12
614.98	57824.40
615.18	57644.18
615.38	57732.24
615.57	57633.94
615.77	57875.60
615.97	58057.87
616.16	57728.14
616.36	57793.68
616.56	57742.48
616.75	57934.99
616.95	57615.50
617.15	57623.70
617.34	57570.45
617.54	57513.11
617.74	57992.33
617.93	57646.22
618.13	57099.42
618.32	57803.92
618.52	57715.86
618.72	57203.86
618.91	57568.40
619.11	57285.78
619.31	57795.73
619.50	57642.13
619.70	57138.33
619.90	57193.62
620.09	57709.71
620.29	57488.53
620.48	57740.43
620.68	58195.08
620.88	57304.21
621.07	57734.29
621.27	57719.95
621.46	57113.75
621.66	57269.40
621.86	57169.05
622.05	56900.76
622.25	57148.57
622.44	57218.20
622.64	57177.24
622.84	57654.42
623.03	56505.51
623.23	57334.93
623.42	57058.46
623.62	57105.56
623.82	57443.48
624.01	57193.62
624.21	57162.90
624.40	57228.44
624.60	56806.56
624.80	57042.07
624.99	57019.55
625.19	56673.44
625.38	56698.01
625.58	57152.66
625.77	57177.24
625.97	57029.79
626.17	56671.39
626.36	56886.43
626.56	57160.86
626.75	56313.00
626.95	57027.74
627.14	56599.71
627.34	57468.05
627.54	56321.19
627.73	57117.85
627.93	57363.60
628.12	56382.63
628.32	56777.89
628.51	56992.92
628.71	56792.22
628.90	56808.61
629.10	57210.01
629.30	56939.68
629.49	56618.14
629.69	56884.38
629.88	57017.50
630.08	56630.43
630.27	57230.49
630.47	56738.97
630.66	56681.63
630.86	57148.57
631.05	56345.76
631.25	57095.32
631.44	56329.38
631.64	56710.30
631.84	56669.34
632.03	56884.38
632.23	56730.78
632.42	56878.24
632.62	56802.46
632.81	56298.66
633.01	56741.02
633.20	56456.35
633.40	56767.65
633.59	57040.03
633.79	56183.97
633.98	56552.61
634.18	56341.67
634.37	56497.31
634.57	56796.32
634.76	57027.74
634.96	56681.63
635.15	56609.95
635.35	56333.48
635.54	56562.85
635.74	56925.34
635.93	56276.13
636.13	56876.19
636.32	56724.64
636.52	56370.34
636.71	56243.37
636.91	56530.08
637.10	56530.08
637.30	56534.18
637.49	56593.57
637.69	56577.18
637.88	56980.63
638.08	56456.35
638.27	56767.65
638.46	56786.08
638.66	56081.58
638.85	56759.45
639.05	56636.58
639.24	56986.78
639.44	56460.45
639.63	56726.69
639.83	56964.25
640.02	56726.69
640.22	56442.02
640.41	56956.06
640.61	56110.25
640.80	56292.52
640.99	56366.24
641.19	56956.06
641.38	56677.54
641.58	56472.74
641.77	56458.40
641.97	56079.53
642.16	56374.44
642.36	56798.37
642.55	56587.42
642.74	56239.27
642.94	56724.64
643.13	56081.58
643.33	56583.33
643.52	56745.12
643.72	56898.72
643.91	56327.33
644.10	56495.27
644.30	56407.20
644.49	56153.26
644.69	56478.88
644.88	56939.68
645.08	56214.69
645.27	56376.48
645.46	56364.20
645.66	56525.99
645.85	56423.59
646.05	56298.66
646.24	56800.41
646.43	56685.73
646.63	56464.55
646.82	56956.06
647.02	56552.61
647.21	56241.32
647.40	56800.41
647.60	56403.11
647.79	56640.67
647.99	56306.85
648.18	56341.67
648.37	56941.72
648.57	56474.79
648.76	56585.38
648.96	56485.03
649.15	56892.57
649.34	56675.49
649.54	56712.35
649.73	56525.99
649.92	56632.48
650.12	56808.61
650.31	57031.83
650.51	56646.82
650.70	56919.20
650.89	56501.41
651.09	56980.63
651.28	56321.19
651.47	56929.44
651.67	56626.34
651.86	56917.15
652.06	55989.42
652.25	56843.42
652.44	56462.50
652.64	56261.80
652.83	56255.65
653.02	56517.79
653.22	56818.84
653.41	56454.31
653.60	56229.03
653.80	56540.32
653.99	56632.48
654.18	56550.56
654.38	56849.56
654.57	56298.66
654.76	56337.57
654.96	56337.57
655.15	56585.38
655.34	56482.98
655.54	56183.97
655.73	56413.35
655.92	56390.82
656.12	56681.63
656.31	56401.06
656.50	56505.51
656.70	56013.99
656.89	56454.31
657.08	56360.10
657.28	55995.56
657.47	56224.93
657.66	56474.79
657.86	56562.85
658.05	56126.63
658.24	56251.56
658.43	56497.31
658.63	56149.16
658.82	56319.14
659.01	56030.38
659.21	56671.39
659.40	56800.41
659.59	56356.00
659.79	55934.12
659.98	56321.19
660.17	56489.12
660.36	56145.06
660.56	56347.81
660.75	56138.92
660.94	56433.83
661.14	56145.06
661.33	56001.71
661.52	56124.58
661.71	56296.61
661.91	56093.86
662.10	55891.12
662.29	56286.37
662.49	56224.93
662.68	56018.09
662.87	56069.29
663.06	56222.89
663.26	55915.69
663.45	56417.44
663.64	56208.55
663.83	56116.39
664.03	56450.21
664.22	56147.11
664.41	55760.05
664.60	55760.05
664.80	56202.41
664.99	55827.63
665.18	55823.53
665.37	55979.18
665.57	55778.48
665.76	55733.42
665.95	56233.13
666.14	55786.67
666.34	55807.15
666.53	55581.87
666.72	55960.75
666.91	55583.92
667.11	55516.34
667.30	55583.92
667.49	55682.22
667.68	55768.24
667.87	55764.14
668.07	55542.96
668.26	55669.93
668.45	56126.63
668.64	55227.57
668.84	55913.64
669.03	55909.55
669.22	55639.22
669.41	56095.91
669.60	55516.34
669.80	54936.76
669.99	56069.29
670.18	55467.19
670.37	55778.48
670.57	55973.03
670.76	55485.62
670.95	55702.70
671.14	55235.77
671.33	55096.50
671.53	55655.60
671.72	55516.34
671.91	55428.27
672.10	54998.20
672.29	55329.97
672.48	55252.15
672.68	55919.79
672.87	55041.21
673.06	55129.27
673.25	54934.71
673.44	55237.81
673.64	55159.99
673.83	55379.12
674.02	55002.30
674.21	54871.23
674.40	55045.30
674.59	54729.92
674.79	54650.05
674.98	54881.47
675.17	55108.79
675.36	54801.60
675.55	55407.79
675.74	54777.02
675.94	55086.26
676.13	54983.86
676.32	54844.60
676.51	55391.41
676.70	55063.74
676.89	54613.18
677.08	55112.89
677.28	54518.98
677.47	54770.88
677.66	54867.13
677.85	54631.61
678.04	54768.83
678.23	54981.82
678.42	54723.77
678.62	54246.60
678.81	54928.57
679.00	54521.02
679.19	55020.73
679.38	54555.84
679.57	54760.64
679.76	54805.69
679.96	54758.59
680.15	54480.06
680.34	54525.12
680.53	54305.99
680.72	54609.09
680.91	54525.12
681.10	54269.12
681.29	54486.21
681.48	54228.16
681.68	53941.45
681.87	54060.23
682.06	54105.29
682.25	53648.59
682.44	53896.39
682.63	54189.25
682.82	53699.79
683.01	54174.92
683.20	53683.40
683.39	54392.00
683.59	54023.37
683.78	53667.02
683.97	53873.87
684.16	53902.54
684.35	53628.11
684.54	53894.35
684.73	53722.32
684.92	53523.66
685.11	53515.47
685.30	53605.58
685.49	53804.24
685.69	53327.06
685.88	53318.87
686.07	53433.55
686.26	53107.93
686.45	53335.25
686.64	53714.12
686.83	53449.94
687.02	53249.24
687.21	53345.49
687.40	53220.56
687.59	53331.15
687.78	53314.77
687.97	53286.10
688.16	52944.09
688.35	52884.70
688.54	52858.07
688.74	52808.92
688.93	52784.35
689.12	53023.96
689.31	52661.47
689.50	53138.65
689.69	52524.25
689.88	52337.89
690.07	52511.97
690.26	52387.04
690.45	52810.97
690.64	53026.01
690.83	52559.07
691.02	52565.21
691.21	52542.69
691.40	52847.83
691.59	52284.64
691.78	52122.85
691.97	52282.59
692.16	52270.31
692.35	52667.61
692.54	52233.44
692.73	52372.70
692.92	51719.40
693.11	52112.61
693.30	51946.73
693.49	52466.91
693.68	52024.55
693.87	52022.50
694.06	51551.47
694.25	52143.33
694.44	51901.67
694.63	51877.10
694.82	52092.13
695.01	51752.17
695.20	51352.82
695.39	51836.14
695.58	51698.92
695.77	51352.82
695.96	51361.01
696.15	51492.08
696.34	51258.61
696.53	51426.54
696.72	51434.74
696.91	51414.26
697.10	51586.28
697.29	51160.31
697.48	51270.90
697.67	51180.79
697.86	50980.09
698.05	51145.97
698.24	51334.38
698.43	50926.84
698.62	51033.33
698.81	50480.38
699.00	51365.10
699.19	50652.41
699.38	50957.56
699.57	50781.43
699.76	51205.36
699.95	50687.23
700.14	50328.83
700.32	50633.98
700.51	50752.76
700.70	51002.61
700.89	50556.16
701.08	50713.85
701.27	50566.40
701.46	50533.63
701.65	50103.56
701.84	50472.19
702.03	50285.82
702.22	50220.29
702.41	49941.77
702.60	50337.02
702.79	50056.45
702.98	49790.22
703.17	50242.82
703.35	50105.60
703.54	49722.63
703.73	49931.53
703.92	50164.99
704.11	50193.67
704.30	49927.43
704.49	49716.49
704.68	49610.00
704.87	49612.04
705.06	49560.84
705.25	49386.77
705.43	49503.50
705.62	49599.76
705.81	49517.84
706.00	49872.14
706.19	49435.92
706.38	49198.35
706.57	49368.33
706.76	49224.98
706.95	49749.26
707.14	48983.32
707.32	49022.23
707.51	49227.02
707.70	49102.10
707.89	49184.02
708.08	48977.17
708.27	49315.09
708.46	49368.33
708.65	49229.07
708.84	49175.83
709.02	48925.97
709.21	48719.13
709.40	48889.11
709.59	48780.57
709.78	48618.78
709.97	49007.89
710.16	48108.83
710.34	48479.52
710.53	48696.60
710.72	48270.62
710.91	48747.80
711.10	48313.63
711.29	48211.23
711.48	48094.50
711.66	47998.24
711.85	48497.95
712.04	47850.79
712.23	48213.28
712.42	47977.76
712.61	48225.57
712.80	47725.86
712.98	48004.39
713.17	48129.31
713.36	47766.82
713.55	47904.04
713.74	47793.45
713.93	47813.93
714.11	47942.95
714.30	47693.10
714.49	47738.15
714.68	47879.46
714.87	47648.04
715.06	47412.52
715.24	47437.10
715.43	47430.96
715.62	47516.97
715.81	47230.26
716.00	47187.25
716.18	47553.83
716.37	46910.77
716.56	46914.87
716.75	47158.58
716.94	47318.32
717.12	46742.84
717.31	47004.98
717.50	46892.34
717.69	46990.64
717.88	46337.34
718.06	46855.48
718.25	46929.20
718.44	46701.88
718.63	46552.38
718.82	46449.98
719.00	46599.48
719.19	46179.65
719.38	46267.71
719.57	46513.47
719.76	45645.13
719.94	45944.13
720.13	46091.58
720.32	45679.94
720.51	45710.66
720.69	46069.06
720.88	45919.56
721.07	45712.71
721.26	45684.04
721.44	45344.08
721.63	45524.30
721.82	45466.95
722.01	45360.46
722.20	45626.70
722.38	45284.68
722.57	45126.99
722.76	45186.38
722.95	45360.46
723.13	44807.51
723.32	45038.93
723.51	44731.73
723.70	44404.06
723.88	44971.35
724.07	44477.79
724.26	44993.87
724.44	44442.97
724.63	44805.46
724.82	45016.40
725.01	44801.36
725.19	44539.22
725.38	44502.36
725.57	44213.60
725.76	44928.34
725.94	44365.15
726.13	43941.22
726.32	44094.82
726.51	44242.27
726.69	44535.13
726.88	44350.81
727.07	44227.93
727.25	43761.00
727.44	44352.86
727.63	43930.98
727.82	43877.73
728.00	44229.98
728.19	43761.00
728.38	44283.23
728.56	43607.40
728.75	44158.30
728.94	43881.83
729.12	44156.25
729.31	43883.87
729.50	43857.25
729.69	43928.93
729.87	43691.37
730.06	43576.68
730.25	43924.83
730.43	43910.50
730.62	43636.07
730.81	44199.26
730.99	43627.88
731.18	43941.22
731.37	43558.25
731.55	44027.23
731.74	43814.24
731.93	43623.78
732.11	43490.66
732.30	43310.44
732.49	43238.76
732.67	43584.87
732.86	43488.62
733.05	43683.17
733.23	43277.68
733.42	43396.46
733.61	43351.40
733.79	43251.05
733.98	43681.13
734.17	43550.06
734.35	43316.59
734.54	43283.82
734.73	43804.00
734.91	43341.16
735.10	43175.28
735.29	43404.65
735.47	42900.85
735.66	43130.22
735.84	43122.03
736.03	42845.55
736.22	43300.20
736.40	43019.63
736.59	43054.45
736.78	42755.44
736.96	43111.79
737.15	43144.56
737.33	42263.93
737.52	42628.47
737.71	42884.47
737.89	42917.23
738.08	42456.44
738.27	42622.33
738.45	42892.66
738.64	42726.77
738.82	42501.50
739.01	42331.51
739.20	42145.15
739.38	42665.33
739.57	42796.40
739.75	42415.48
739.94	42515.83
740.13	42454.39
740.31	42313.08
740.50	42108.29
740.68	42077.57
740.87	42431.86
741.06	41903.49
741.24	42331.51
741.43	41850.24
741.61	42313.08
741.80	42175.87
741.99	41893.25
742.17	41815.43
742.36	42046.85
742.54	41590.15
742.73	41575.81
742.91	42210.68
743.10	42188.16
743.29	41772.42
743.47	41911.68
743.66	41848.19
743.84	41954.69
744.03	41682.31
744.21	41442.70
744.40	41983.36
744.59	41438.60
744.77	41381.26
744.96	41612.68
745.14	41397.64
745.33	41311.63
745.51	41473.42
745.70	41227.66
745.88	41207.18
746.07	41659.78
746.26	40826.26
746.44	41098.64
746.63	41002.38
746.81	40934.80
747.00	41153.93
747.18	41452.94
747.37	41332.11
747.55	40861.07
747.74	41477.51
747.92	40482.20
748.11	41174.41
748.29	40795.54
748.48	40914.32
748.66	40983.95
748.85	40383.90
749.03	40639.89
749.22	40910.22
749.41	40494.49
749.59	40844.69
749.78	40383.90
749.96	40066.46
750.15	40650.13
750.33	40818.07
750.52	40140.19
750.70	40093.08
750.89	40181.15
751.07	40324.50
751.26	40181.15
751.44	40095.13
751.63	40369.56
751.81	39620.00
752.00	40097.18
752.18	39976.35
752.37	40156.57
752.55	39552.42
752.74	39802.27
752.92	39761.31
753.10	39712.16
753.29	39667.11
753.47	39333.29
753.66	39701.92
753.84	39845.28
754.03	39468.45
754.21	39470.50
754.40	39337.38
754.58	39581.09
754.77	39503.27
754.95	39699.87
755.14	39314.86
755.32	38733.23
755.51	39159.21
755.69	39200.17
755.88	38831.54
756.06	39382.44
756.24	39138.73
756.43	38940.08
756.61	38919.60
756.80	38956.46
756.98	39009.71
757.17	39009.71
757.35	39089.58
757.54	38847.92
757.72	38899.12
757.90	38636.98
758.09	38309.30
758.27	38927.79
758.46	38507.96
758.64	38753.71
758.83	38866.35
759.01	38745.52
759.19	38632.88
759.38	38415.80
759.56	38596.02
759.75	38747.57
759.93	38534.58
760.12	38274.49
760.30	37948.86
760.48	37842.37
760.67	38088.12
760.85	38503.86
761.04	38313.40
761.22	37998.01
761.40	38202.81
761.59	37955.00
761.77	37475.78
761.96	38022.59
762.14	37830.08
762.32	37594.56
762.51	37625.28
762.69	37496.26
762.88	37690.82
763.06	37770.69
763.24	37852.61
763.43	37969.34
763.61	37377.48
763.80	37641.67
763.98	37486.02
764.16	37606.85
764.35	37430.72
764.53	37236.17
764.72	37414.34
764.90	37225.93
765.08	37299.65
765.27	37096.91
765.45	36861.39
765.63	36638.16
765.82	36945.36
766.00	36679.12
766.18	36627.92
766.37	37129.67
766.55	36662.74
766.74	37107.15
766.92	36877.77
767.10	36888.01
767.29	36441.56
767.47	36414.93
767.65	36709.84
767.84	36017.63
768.02	36347.35
768.20	36283.86
768.39	36427.22
768.57	36210.14
768.75	36492.76
768.94	36513.23
769.12	36140.50
769.30	36085.21
769.49	36187.61
769.67	36091.35
769.85	35747.29
770.04	35806.69
770.22	35591.65
770.40	35747.29
770.59	35952.09
770.77	35771.87
770.95	36195.80
771.14	35687.90
771.32	35632.61
771.50	35511.78
771.69	35667.42
771.87	35689.95
772.05	35323.36
772.24	35450.34
772.42	35431.91
772.60	35339.75
772.78	35225.06
772.97	35243.49
773.15	35331.56
773.33	35296.74
773.52	34942.44
773.70	35110.38
773.88	35079.66
774.07	34870.76
774.25	34899.44
774.43	35501.54
774.61	34864.62
774.80	35163.62
774.98	35403.24
775.16	35132.90
775.34	35538.40
775.53	34938.35
775.71	35165.67
775.89	35249.64
776.08	35091.94
776.26	35093.99
776.44	34760.17
776.62	34708.97
776.81	35141.10
776.99	34960.87
777.17	35093.99
777.35	35364.32
777.54	35106.28
777.72	35120.62
777.90	35206.63
778.08	35216.87
778.27	35288.55
778.45	35433.96
778.63	35126.76
778.81	35128.81
779.00	35579.36
779.18	35538.40
779.36	35671.52
779.54	35440.10
779.73	34813.42
779.91	35702.24
780.09	35640.80
780.27	35708.38
780.46	35444.20
780.64	35579.36
780.82	35640.80
781.00	35042.79
781.19	35767.77
781.37	35241.45
781.55	35519.97
781.73	35395.04
781.91	35612.13
782.10	35438.05
782.28	35685.86
782.46	35378.66
782.64	35737.05
782.82	35300.84
783.01	35724.77
783.19	35534.31
783.37	35423.72
783.55	35333.60
783.74	35991.00
783.92	35528.16
784.10	35495.39
784.28	35489.25
784.46	35352.04
784.64	35100.14
784.83	35249.64
785.01	35489.25
785.19	35429.86
785.37	35507.68
785.55	35141.10
785.74	35210.73
785.92	35132.90
786.10	35214.82
786.28	35397.09
786.46	35378.66
786.64	35499.49
786.83	35317.22
787.01	35431.91
787.19	35239.40
787.37	34981.35
787.55	34911.72
787.74	34577.90
787.92	35001.83
788.10	35151.34
788.28	34948.59
788.46	34991.59
788.64	34495.99
788.82	34874.86
789.01	34622.96
789.19	35044.84
789.37	34479.60
789.55	34442.74
789.73	34414.07
789.91	34287.09
790.09	34899.44
790.28	34213.37
790.46	34387.44
790.64	34092.54
790.82	34248.18
791.00	33857.02
791.18	34051.58
791.36	33959.42
791.55	34057.72
791.73	33863.16
791.91	33408.51
792.09	33822.20
792.27	33838.59
792.45	33689.09
792.63	33633.79
792.81	33547.78
793.00	33543.68
793.18	33203.72
793.36	33238.53
793.54	33136.13
793.72	33347.08
793.90	32818.70
794.08	32921.10
794.26	32900.62
794.44	32744.97
794.62	32599.57
794.81	33236.48
794.99	32648.72
795.17	32685.58
795.35	32405.01
795.53	32669.20
795.71	32710.16
795.89	32448.02
796.07	32271.89
796.25	31946.26
796.43	31968.79
796.61	32144.92
796.80	31671.84
796.98	31856.15
797.16	31716.89
797.34	31684.12
797.52	31487.52
797.70	31415.84
797.88	31536.67
798.06	31503.90
798.24	31602.21
798.42	31096.36
798.60	31297.06
798.78	30803.50
798.96	31077.93
799.14	31137.32
799.32	31155.75
799.51	30846.51
799.69	31004.20
799.87	30766.63
800.05	30340.66
800.23	30621.23
800.41	30438.96
800.59	30547.50
800.77	30316.08
800.95	30266.93
801.13	30225.97
801.31	30254.64
801.49	29969.97
801.67	30133.81
801.85	29822.52
802.03	30051.89
802.21	30002.74
802.39	29857.34
802.57	29642.30
802.75	29668.92
802.93	29646.40
803.11	29601.34
803.29	29605.44
803.47	29165.12
803.65	29326.91
803.83	29167.17
804.01	29275.71
804.19	28915.27
804.37	28730.95
804.55	28780.10
804.73	28749.39
804.91	28890.70
805.09	28829.26
805.27	28530.25
805.45	29122.12
805.63	28685.90
805.81	28509.77
805.99	28864.07
806.17	28466.77
806.35	28202.58
806.53	28358.22
806.71	28524.11
806.89	28036.69
807.07	28223.06
807.25	28114.52
807.43	27786.84
807.61	27940.44
807.79	27881.05
807.97	27680.35
808.15	27860.57
808.33	27459.16
808.51	27563.61
808.69	27756.12
808.87	27580.00
809.05	27133.54
809.23	27547.23
809.41	27252.32
809.59	27364.96
809.77	27160.16
809.95	27209.31
810.13	27346.53
810.31	26965.60
810.49	26951.27
810.67	26873.45
810.84	27072.10
811.02	26822.25
811.20	26642.03
811.38	26762.86
811.56	26627.69
811.74	26734.18
811.92	26791.53
812.10	26580.59
812.28	26711.66
812.46	26422.89
812.64	26547.82
812.82	26107.51
813.00	26371.69
813.18	26455.66
813.36	26240.62
813.53	25865.85
813.71	25890.42
813.89	26203.76
814.07	26013.30
814.25	25867.89
814.43	25994.87
814.61	25869.94
814.79	25831.03
814.97	25622.14
815.15	25800.31
815.33	25482.88
815.50	25306.75
815.68	25663.10
815.86	25566.84
816.04	25329.28
816.22	25159.30
816.40	25300.61
816.58	25108.10
816.76	25114.24
816.94	25175.68
817.11	25015.94
817.29	25425.53
817.47	25151.10
817.65	24876.68
817.83	24864.39
818.01	24868.48
818.19	24839.81
818.37	24503.95
818.54	24491.66
818.72	24542.86
818.90	24802.95
819.08	24448.65
819.26	24553.10
819.44	24555.15
819.62	24399.50
819.80	24503.95
819.97	24489.61
820.15	24565.39
820.33	23977.62
820.51	24405.64
820.69	23873.17
820.87	24444.56
821.05	24393.36
821.22	24178.32
821.40	24192.65
821.58	23979.67
821.76	23922.32
821.94	24168.08
822.12	24120.98
822.29	24219.28
822.47	23670.42
822.65	23998.10
822.83	23582.36
823.01	23867.03
823.19	23596.70
823.36	23520.92
823.54	23604.89
823.72	23469.72
823.90	23293.60
824.08	23565.98
824.25	23600.79
824.43	23187.10
824.61	23436.95
824.79	23404.19
824.97	23275.16
825.15	23406.23
825.32	23133.86
825.50	23142.05
825.68	23295.64
825.86	23281.31
826.04	23262.88
826.21	23000.74
826.39	23002.78
826.57	22810.28
826.75	22681.25
826.93	22990.50
827.10	22648.49
827.28	22863.52
827.46	22748.84
827.64	22589.10
827.81	22498.98
827.99	22738.60
828.17	22550.18
828.35	22496.94
828.53	22541.99
828.70	22521.51
828.88	22498.98
829.06	22628.01
829.24	22513.32
829.41	22472.36
829.59	22357.67
829.77	22441.64
829.95	22300.33
830.12	22136.49
830.30	22484.65
830.48	22298.28
830.66	22226.60
830.84	22144.69
831.01	21864.11
831.19	22054.58
831.37	21886.64
831.55	21927.60
831.72	21872.31
831.90	21970.61
832.08	21880.50
832.25	21821.11
832.43	21722.80
832.61	21698.23
832.79	21696.18
832.96	21780.15
833.14	21608.12
833.32	21696.18
833.50	21759.67
833.67	21507.77
833.85	21511.86
834.03	21419.71
834.20	21606.07
834.38	21532.34
834.56	21419.71
834.74	21309.11
834.91	21325.50
835.09	21323.45
835.27	21348.03
835.44	21380.79
835.62	20991.68
835.80	20985.54
835.98	21163.71
836.15	20942.53
836.33	21034.69
836.51	21302.97
836.68	20979.39
836.86	20987.58
837.04	20827.84
837.21	20795.07
837.39	20827.84
837.57	20813.51
837.75	21210.81
837.92	20500.17
838.10	20735.68
838.28	20614.85
838.45	20561.61
838.63	20532.93
838.81	20635.33
838.98	20633.29
839.16	20526.79
839.34	20614.85
839.51	20598.47
839.69	20365.00
839.87	20723.40
840.04	20432.58
840.22	20430.54
840.40	20211.40
840.57	20305.61
840.75	20385.48
840.93	20405.96
841.10	20451.02
841.28	20606.66
841.46	20039.37
841.63	20330.19
841.81	20176.59
841.98	20315.85
842.16	20000.46
842.34	20049.61
842.51	19791.57
842.69	20090.57
842.87	19969.74
843.04	20338.38
843.22	19605.20
843.40	19896.02
843.57	19939.02
843.75	19853.01
843.92	20086.48
844.10	19906.26
844.28	19779.28
844.45	19543.77
844.63	19947.22
844.81	19556.05
844.98	19541.72
845.16	19347.16
845.33	19375.83
845.51	19373.78
845.69	19521.24
845.86	19318.49
846.04	19355.35
846.21	19586.77
846.39	19355.35
846.57	19289.82
846.74	19316.44
846.92	19250.91
847.09	19420.89
847.27	19154.65
847.45	19211.99
847.62	19341.02
847.80	19164.89
847.97	18968.29
848.15	19033.82
848.32	19046.11
848.50	19109.60
848.68	18943.71
848.85	18839.26
849.03	18968.29
849.20	19379.93
849.38	18824.93
849.56	19080.92
849.73	18927.33
849.91	19103.45
850.08	19164.89
850.26	18542.31
850.43	18972.38
850.61	18611.94
850.78	18777.83
850.96	18542.31
851.14	18636.52
851.31	18646.76
851.49	18644.71
851.66	18546.40
851.84	18353.90
852.01	18824.93
852.19	18589.41
852.36	18407.14
852.54	18269.93
852.71	18573.03
852.89	18546.40
853.07	18507.49
853.24	18419.43
853.42	18274.03
853.59	18132.72
853.77	18425.57
853.94	18151.15
854.12	18429.67
854.29	18069.23
854.47	18441.96
854.64	18188.01
854.82	18269.93
854.99	18099.95
855.17	18063.08
855.34	17995.50
855.52	18044.65
855.69	18081.52
855.87	18040.56
856.04	17895.15
856.22	17719.03
856.39	17622.77
856.57	17823.47
856.74	17479.41
856.92	18020.08
857.09	17827.57
857.27	17751.79
857.44	17624.82
857.62	17655.54
857.79	17549.04
857.97	17680.11
858.14	17671.92
858.32	17643.25
858.49	17553.14
858.67	17624.82
858.84	17473.27
859.02	17444.60
859.19	17393.40
859.37	17200.89
859.54	17366.78
859.72	17420.02
859.89	17272.57
860.06	17284.86
860.24	17303.29
860.41	17114.87
860.59	17116.92
860.76	17407.73
860.94	17254.14
861.11	17043.20
861.29	17100.54
861.46	16813.82
861.64	16889.60
861.81	17053.44
861.98	16879.36
862.16	17024.76
862.33	16961.28
862.51	16738.05
862.68	16903.93
862.86	16684.80
863.03	16955.13
863.21	16819.97
863.38	17006.33
863.55	16766.72
863.73	16664.32
863.90	16713.47
864.08	16619.27
864.25	16471.81
864.43	16797.44
864.60	16690.95
864.77	16445.19
864.95	16447.24
865.12	16623.36
865.30	16572.16
865.47	16463.62
865.64	16156.43
865.82	16273.16
865.99	16514.82
866.17	16221.96
866.34	16400.13
866.51	16209.67
866.69	16322.31
866.86	16127.75
867.04	16103.18
867.21	16322.31
867.38	15984.40
867.56	16285.45
867.73	16021.26
867.91	16025.36
868.08	16047.88
868.25	16047.88
868.43	15789.84
868.60	15826.70
868.78	15871.76
868.95	15773.46
869.12	15929.10
869.30	15587.09
869.47	15873.81
869.64	15709.97
869.82	15597.33
869.99	15900.43
870.16	15589.14
870.34	15912.72
870.51	15879.95
870.69	15320.85
870.86	15613.71
871.03	15507.22
871.21	15542.03
871.38	15445.78
871.55	15564.56
871.73	15353.62
871.90	15255.32
872.07	15283.99
872.25	15175.45
872.42	14927.64
872.59	15445.78
872.77	15261.46
872.94	15126.30
873.11	15103.77
873.29	14989.08
873.46	14804.77
873.63	15060.76
873.81	15138.58
873.98	14972.70
874.15	14931.74
874.33	14974.75
874.50	14759.71
874.67	14690.08
874.85	14815.01
875.02	14651.17
875.19	14788.38
875.37	14380.84
875.54	14577.44
875.71	14583.59
875.88	14473.00
876.06	14495.52
876.23	14350.12
876.40	14249.77
876.58	14485.28
876.75	14266.15
876.92	14407.46
877.10	14282.53
877.27	14047.02
877.44	14296.87
877.61	14124.84
877.79	14167.85
877.96	14270.25
878.13	14176.04
878.31	14067.50
878.48	14104.36
878.65	14253.86
878.82	14030.63
879.00	14071.59
879.17	14036.78
879.34	14161.70
879.51	13735.73
879.69	13743.92
879.86	13754.16
880.03	13813.55
880.21	13702.96
880.38	13737.77
880.55	13954.86
880.72	13727.53
880.90	13760.30
881.07	13887.28
881.24	13651.76
881.41	13821.74
881.59	13635.38
881.76	13635.38
881.93	13592.37
882.10	13442.87
882.28	13651.76
882.45	13717.29
882.62	13543.22
882.79	13682.48
882.96	13307.70
883.14	13383.48
883.31	13489.97
883.48	13578.03
883.65	13410.10
883.83	13154.10
884.00	13403.96
884.17	13225.78
884.34	13414.20
884.51	13397.81
884.69	13391.67
884.86	13174.58
885.03	13229.88
885.20	13168.44
885.38	13414.20
885.55	13213.49
885.72	13371.19
885.89	13174.58
886.06	13236.02
886.24	13182.77
886.41	13082.42
886.58	13332.28
886.75	13313.84
886.92	13096.76
887.10	13104.95
887.27	13117.24
887.44	12928.83
887.61	13029.18
887.78	12713.79
887.95	12988.22
888.13	12994.36
888.30	12846.91
888.47	12844.86
888.64	12795.71
888.81	12855.10
888.99	12599.10
889.16	12595.01
889.33	12771.13
889.50	12547.90
889.67	12631.87
889.84	12646.21
890.01	12609.34
890.19	12693.31
890.36	12560.19
890.53	12486.47
890.70	12214.09
890.87	12588.86
891.04	12617.54
891.22	12535.62
891.39	12672.83
891.56	12390.21
891.73	12496.71
891.90	12318.53
892.07	12255.04
892.24	12320.58
892.42	12197.70
892.59	12281.67
892.76	12148.55
892.93	12136.26
893.10	12285.76
893.27	12218.18
893.44	12238.66
893.61	12220.23
893.79	12216.13
893.96	12029.77
894.13	12128.07
894.30	12377.92
894.47	11966.28
894.64	12363.59
894.81	12142.41
894.98	12138.31
895.15	12201.80
895.33	12027.72
895.50	12003.14
895.67	12253.00
895.84	11939.66
896.01	12095.30
896.18	12152.65
896.35	12281.67
896.52	12033.86
896.69	12031.82
896.86	12242.76
897.04	12078.92
897.21	12158.79
897.38	12105.54
897.55	12341.06
897.72	12121.93
897.89	12130.12
898.06	11994.95
898.23	11999.05
898.40	12021.58
898.57	12046.15
898.74	12166.98
898.91	11992.90
899.08	12056.39
899.26	11763.53
899.43	11937.61
899.60	11939.66
899.77	12011.34
899.94	11908.94
900.11	11939.66
900.28	12066.63
900.45	11849.55
900.62	11798.35
900.79	11921.23
900.96	11769.68
901.13	11833.16
901.30	11917.13
901.47	11749.20
901.64	12040.01
901.81	11831.12
901.98	11884.36
902.15	11951.95
902.32	11894.60
902.49	11951.95
902.66	11894.60
902.83	11841.36
903.01	11788.11
903.18	11904.84
903.35	11890.51
903.52	11722.57
903.69	11886.41
903.86	11921.23
904.03	11685.71
904.20	11833.16
904.37	11771.72
904.54	11853.64
904.71	11605.84
904.88	11765.58
905.05	11646.80
905.22	11777.87
905.39	11673.42
905.56	11693.90
905.73	11779.92
905.90	11681.61
906.07	11728.72
906.24	11753.29
906.41	11675.47
906.58	11751.24
906.75	11597.65
906.92	11597.65
907.09	11511.63
907.26	11734.86
907.43	11609.93
907.60	11689.81
907.77	11732.81
907.93	11716.43
908.10	11605.84
908.27	11689.81
908.44	11425.62
908.61	11482.96
908.78	11509.58
908.95	11597.65
909.12	11491.15
909.29	11507.54
909.46	11609.93
909.63	11609.93
909.80	11499.34
909.97	11554.64
910.14	11611.98
910.31	11339.60
910.48	11351.89
910.65	11663.18
910.82	11431.76
910.99	11407.19
911.16	11454.29
911.33	11548.50
911.50	11460.43
911.66	11343.70
911.83	11376.47
912.00	11163.48
912.17	11126.61
912.34	11186.01
912.51	11302.74
912.68	11104.09
912.85	11280.21
913.02	11132.76
913.19	11306.84
913.36	11351.89
913.53	11255.64
913.70	11016.02
913.86	11054.94
914.03	11208.53
914.20	11024.22
914.37	11083.61
914.54	10944.34
914.71	11050.84
914.88	10852.19
915.05	10909.53
915.22	10721.12
915.39	10925.91
915.55	10964.82
915.72	10872.67
915.89	10815.32
916.06	10692.44
916.23	10665.82
916.40	10510.18
916.57	10688.35
916.74	10639.20
916.91	10753.88
917.07	10309.47
917.24	10467.17
917.41	10583.90
917.58	10458.98
917.75	10618.72
917.92	10444.64
918.09	10559.33
918.26	10415.97
918.42	10456.93
918.59	10350.43
918.76	10035.05
918.93	10471.26
919.10	10291.04
919.27	10301.28
919.44	10303.33
919.60	10180.45
919.77	10141.54
919.94	10223.46
920.11	10174.31
920.28	10198.88
920.45	10112.87
920.61	10104.68
920.78	10014.57
920.95	9916.26
921.12	9949.03
921.29	9871.21
921.46	9842.54
921.62	9787.24
921.79	9717.61
921.96	9711.47
922.13	9541.49
922.30	9549.68
922.47	9619.31
922.63	9588.59
922.80	9482.10
922.97	9406.32
923.14	9494.38
923.31	9576.30
923.47	9541.49
923.64	9383.79
923.81	9402.22
923.98	9459.57
924.15	9303.92
924.32	9148.28
924.48	9344.88
924.65	9363.31
924.82	9439.09
924.99	9195.38
925.15	9189.24
925.32	9176.95
925.49	9035.64
925.66	9115.51
925.83	8757.11
925.99	8910.71
926.16	9017.21
926.33	8982.39
926.50	8728.44
926.67	8947.58
926.83	8587.13
927.00	8589.18
927.17	9002.87
927.34	8763.26
927.50	8652.67
927.67	8621.95
927.84	8810.36
928.01	8624.00
928.17	8513.41
928.34	8546.17
928.51	8384.38
928.68	8316.80
928.84	8294.27
929.01	8312.71
929.18	8281.99
929.35	8228.74
929.51	8236.93
929.68	8238.98
929.85	8243.07
930.02	8198.02
930.18	8167.30
930.35	8112.00
930.52	8025.99
930.69	8114.05
930.85	7966.60
931.02	7993.22
931.19	8005.51
931.36	8005.51
931.52	8028.04
931.69	7921.54
931.86	7864.20
932.02	7903.11
932.19	7782.28
932.36	7638.92
932.53	7616.40
932.69	7659.40
932.86	7677.83
933.03	7665.55
933.19	7536.52
933.36	7569.29
933.53	7511.95
933.70	7303.06
933.86	7546.76
934.03	7253.91
934.20	7251.86
934.36	7313.30
934.53	7131.03
934.70	7047.06
934.86	7022.48
935.03	6969.24
935.20	6959.00
935.36	6746.01
935.53	6813.59
935.70	6879.13
935.86	6842.26
936.03	6907.80
936.20	6766.49
936.36	6645.66
936.53	6619.04
936.70	6436.77
936.86	6608.80
937.03	6420.38
937.20	6297.50
937.36	6330.27
937.53	6137.76
937.70	6266.78
937.86	6119.33
938.03	5994.40
938.20	6154.15
938.36	6068.13
938.53	5955.49
938.70	5834.66
938.86	5898.15
939.03	5810.09
939.20	5638.06
939.36	5570.48
939.53	5609.39
939.70	5619.63
939.86	5488.56
940.03	5353.39
940.19	5291.95
940.36	5257.14
940.53	5296.05
940.69	5316.53
940.86	5240.75
941.03	5038.00
941.19	5033.91
941.36	5089.20
941.52	4995.00
941.69	4908.98
941.86	4736.95
942.02	4825.01
942.19	4761.53
942.35	4902.84
942.52	4691.90
942.69	4702.14
942.85	4581.31
943.02	4728.76
943.18	4614.07
943.35	4505.53
943.52	4501.44
943.68	4480.96
943.85	4464.57
944.01	4499.39
944.18	4356.03
944.35	4511.68
944.51	4419.52
944.68	4300.73
944.84	4370.37
945.01	4331.45
945.17	4298.69
945.34	4358.08
945.51	4253.63
945.67	4276.16
945.84	4286.40
946.00	4181.95
946.17	4296.64
946.33	4192.19
946.50	4190.14
946.67	4138.94
946.83	4257.73
947.00	4335.55
947.16	4161.47
947.33	4179.90
947.49	4069.31
947.66	4243.39
947.82	4184.00
947.99	4177.86
948.16	4140.99
948.32	4130.75
948.49	4118.47
948.65	4243.39
948.82	4270.01
948.98	4161.47
949.15	4104.13
949.31	4097.99
949.48	4134.85
949.64	4159.42
949.81	4304.83
949.97	4169.66
950.14	4245.44
950.30	4124.61
950.47	4222.91
950.63	4202.43
950.80	4216.77
950.96	4136.90
951.13	4163.52
951.30	4093.89
951.46	4130.75
951.63	4343.74
951.79	4190.14
951.96	4120.51
952.12	4263.87
952.29	4364.22
952.45	4259.78
952.62	4224.96
952.78	4140.99
952.94	4181.95
953.11	4181.95
953.27	4087.75
953.44	4239.30
953.60	4249.54
953.77	4251.58
953.93	4184.00
954.10	4323.26
954.26	4290.49
954.43	4306.88
954.59	4214.72
954.76	4399.04
954.92	4360.13
955.09	4233.15
955.25	4270.01
955.42	4167.62
955.58	4284.35
955.75	4192.19
955.91	4276.16
956.07	4218.82
956.24	4202.43
956.40	4288.45
956.57	4368.32
956.73	4259.78
956.90	4259.78
957.06	4300.73
957.23	4229.06
957.39	4239.30
957.56	4212.67
957.72	4130.75
957.88	4292.54
958.05	4290.49
958.21	4390.84
958.38	4339.65
958.54	4245.44
958.71	4296.64
958.87	4270.01
959.03	4241.34
959.20	4321.21
959.36	4155.33
959.53	4315.07
959.69	4325.31
959.85	4351.93
960.02	4243.39
960.18	4327.36
960.35	4351.93
960.51	4411.32
960.68	4298.69
960.84	4202.43
961.00	4272.06
961.17	4171.71
961.33	4253.63
961.50	4206.53
961.66	4292.54
961.82	4270.01
961.99	4222.91
962.15	4302.78
962.31	4177.86
962.48	4282.30
962.64	4306.88
962.81	4304.83
962.97	4245.44
963.13	4229.06
963.30	4229.06
963.46	4298.69
963.62	4239.30
963.79	4165.57
963.95	4171.71
964.12	4200.38
964.28	4196.29
964.44	4194.24
964.61	4227.01
964.77	4151.23
964.93	4196.29
965.10	4097.99
965.26	4057.03
965.42	4114.37
965.59	4077.51
965.75	4306.88
965.92	4216.77
966.08	4216.77
966.24	4132.80
966.41	4069.31
966.57	4159.42
966.73	4278.21
966.90	4077.51
967.06	4122.56
967.22	4091.84
967.39	4116.42
967.55	4007.87
967.71	4075.46
967.88	4140.99
968.04	4106.18
968.20	4114.37
968.37	4007.87
968.53	3993.54
968.69	4128.70
968.85	4159.42
969.02	4067.27
969.18	4020.16
969.34	4059.07
969.51	4030.40
969.67	4038.59
969.83	4003.78
970.00	3950.53
970.16	3997.64
970.32	4091.84
970.48	4026.31
970.65	3919.81
970.81	3934.15
970.97	3936.20
971.14	3940.29
971.30	3971.01
971.46	3839.94
971.63	3809.22
971.79	3928.00
971.95	3979.20
972.11	3893.19
972.28	3868.61
972.44	3835.85
972.60	3983.30
972.76	3907.52
972.93	3823.56
973.09	3923.91
973.25	3780.55
973.42	3819.46
973.58	3925.96
973.74	3803.08
973.90	3803.08
974.07	3878.85
974.23	3733.45
974.39	3796.93
974.55	3835.85
974.72	3772.36
974.88	3796.93
975.04	3839.94
975.20	3786.69
975.37	3612.62
975.53	3758.02
975.69	3598.28
975.85	3669.96
976.01	3674.06
976.18	3706.82
976.34	3653.58
976.50	3776.45
976.66	3833.80
976.83	3682.25
976.99	3645.38
977.15	3696.58
977.31	3667.91
977.47	3620.81
977.64	3721.16
977.80	3690.44
977.96	3585.99
978.12	3612.62
978.29	3581.90
978.45	3540.94
978.61	3608.52
978.77	3731.40
978.93	3575.75
979.10	3608.52
979.26	3581.90
979.42	3581.90
979.58	3551.18
979.74	3645.38
979.91	3561.42
980.07	3530.70
980.23	3569.61
980.39	3618.76
980.55	3467.21
980.71	3454.92
980.88	3397.58
981.04	3538.89
981.20	3479.50
981.36	3598.28
981.52	3518.41
981.68	3450.83
981.85	3547.08
982.01	3499.98
982.17	3469.26
982.33	3346.38
982.49	3467.21
982.65	3393.48
982.82	3301.33
982.98	3356.62
983.14	3430.35
983.30	3444.68
983.46	3393.48
983.62	3385.29
983.79	3309.52
983.95	3397.58
984.11	3293.13
984.27	3489.74
984.43	3299.28
984.59	3350.48
984.75	3342.28
984.91	3393.48
985.08	3385.29
985.24	3295.18
985.40	3203.02
985.56	3334.09
985.72	3317.71
985.88	3307.47
986.04	3233.74
986.20	3217.36
986.37	3149.78
986.53	3180.50
986.69	3276.75
986.85	3215.31
987.01	3155.92
987.17	3162.06
987.33	3203.02
987.49	3250.13
987.65	3227.60
987.82	3166.16
987.98	3168.21
988.14	3319.76
988.30	3157.97
988.46	3102.67
988.62	3084.24
988.78	3172.30
988.94	3055.57
989.10	3129.30
989.26	3002.32
989.42	3012.56
989.59	3026.90
989.75	3112.91
989.91	3141.58
990.07	3012.56
990.23	2928.60
990.39	3004.37
990.55	3102.67
990.71	3088.34
990.87	3045.33
991.03	3057.62
991.19	3069.91
991.35	2969.55
991.51	3020.75
991.67	2961.36
991.83	3002.32
992.00	3033.04
992.16	2994.13
992.32	2981.84
992.48	3012.56
992.64	2983.89
992.80	3043.28
992.96	2951.12
993.12	2965.46
993.28	2926.55
993.44	2869.20
993.60	2912.21
993.76	2985.94
993.92	2918.36
994.08	2877.40
994.24	2858.96
994.40	2834.39
994.56	2887.64
994.72	2924.50
994.88	2793.43
995.04	2953.17
995.20	2836.44
995.36	2820.05
995.52	2850.77
995.68	2836.44
995.84	2875.35
996.00	2820.05
996.16	2863.06
996.32	2787.29
996.48	2789.33
996.64	2830.29
996.80	2785.24
996.96	2809.81
997.12	2877.40
997.28	2803.67
997.44	2777.05
997.60	2719.70
997.76	2672.60
997.92	2709.46
998.08	2791.38
998.24	2764.76
998.40	2777.05
998.56	2787.29
998.72	2670.55
998.88	2697.17
999.04	2570.20
999.20	2756.57
999.36	2639.83
999.52	2707.41
999.68	2701.27
999.84	2734.04
1000.00	2725.85
1000.16	2738.13
1000.32	2709.46
1000.48	2709.46
1000.64	2660.31
1000.80	2623.45
1000.95	2656.22
1001.11	2506.71
1001.27	2580.44
1001.43	2666.46
1001.59	2609.11
1001.75	2607.06
1001.91	2615.26
1002.07	2572.25
1002.23	2525.15
1002.39	2467.80
1002.55	2607.06
1002.71	2498.52
1002.87	2568.15
1003.03	2494.43
1003.19	2600.92
1003.34	2543.58
1003.50	2506.71
1003.66	2525.15
1003.82	2504.67
1003.98	2494.43
1004.14	2498.52
1004.30	2439.13
1004.46	2484.19
1004.62	2523.10
1004.78	2498.52
1004.94	2367.45
1005.09	2490.33
1005.25	2463.71
1005.41	2455.51
1005.57	2469.85
1005.73	2414.56
1005.89	2402.27
1006.05	2387.93
1006.21	2482.14
1006.37	2408.41
1006.52	2465.75
1006.68	2428.89
1006.84	2533.34
1007.00	2340.83
1007.16	2461.66
1007.32	2359.26
1007.48	2426.84
1007.64	2389.98
1007.79	2430.94
1007.95	2469.85
1008.11	2414.56
1008.27	2355.16
1008.43	2351.07
1008.59	2301.92
1008.75	2424.80
1008.91	2410.46
1009.06	2381.79
1009.22	2373.60
1009.38	2326.49
1009.54	2385.88
1009.70	2324.44
1009.86	2314.20
1010.01	2308.06
1010.17	2258.91
1010.33	2404.32
1010.49	2312.16
1010.65	2289.63
1010.81	2207.71
1010.96	2289.63
1011.12	2213.85
1011.28	2349.02
1011.44	2275.29
1011.60	2226.14
1011.76	2265.05
1011.91	2267.10
1012.07	2240.48
1012.23	2213.85
1012.39	2138.08
1012.55	2330.59
1012.71	2222.05
1012.86	2174.94
1013.02	2242.53
1013.18	2211.81
1013.34	2187.23
1013.50	2306.01
1013.65	2291.68
1013.81	2160.61
1013.97	2181.09
1014.13	2224.09
1014.29	2232.29
1014.44	2248.67
1014.60	2199.52
1014.76	2136.03
1014.92	2093.02
1015.07	2230.24
1015.23	2179.04
1015.39	2242.53
1015.55	2252.77
1015.71	2088.93
1015.86	2168.80
1016.02	2131.94
1016.18	2064.35
1016.34	2117.60
1016.49	2058.21
1016.65	2172.89
1016.81	2113.50
1016.97	2113.50
1017.12	2176.99
1017.28	2060.26
1017.44	2131.94
1017.60	2088.93
1017.75	1984.48
1017.91	2041.82
1018.07	2129.89
1018.23	2117.60
1018.38	2107.36
1018.54	2103.26
1018.70	2084.83
1018.86	2002.91
1019.01	2078.69
1019.17	2078.69
1019.33	2189.28
1019.49	1996.77
1019.64	2090.98
1019.80	2043.87
1019.96	2054.11
1020.12	2054.11
1020.27	2090.98
1020.43	1953.76
1020.59	2000.87
1020.74	2021.35
1020.90	2045.92
1021.06	2058.21
1021.22	2058.21
1021.37	1978.34
1021.53	2011.11
1021.69	2017.25
1021.84	1982.43
1022.00	1968.10
1022.16	1929.19
1022.31	2076.64
1022.47	1982.43
1022.63	2004.96
1022.79	2015.20
1022.94	1941.47
1023.10	2007.01
1023.26	1945.57
1023.41	1900.52
1023.57	1949.67
1023.73	1964.00
1023.88	1949.67
1024.04	1933.28
1024.20	1961.95
1024.35	1953.76
1024.51	1990.63
1024.67	1961.95
1024.82	1945.57
1024.98	1843.17
1025.14	1892.32
1025.29	1908.71
1025.45	1996.77
1025.61	1925.09
1025.76	1920.99
1025.92	1951.71
1026.08	1978.34
1026.23	1912.80
1026.39	1937.38
1026.55	1875.94
1026.70	1927.14
1026.86	1906.66
1027.02	1834.98
1027.17	1947.62
1027.33	1943.52
1027.48	1837.03
1027.64	1834.98
1027.80	1947.62
1027.95	1890.28
1028.11	1839.08
1028.27	1769.44
1028.42	1845.22
1028.58	1900.52
1028.73	1808.36
1028.89	1863.65
1029.05	1900.52
1029.20	1898.47
>>>>>End Processed Spectral Data<<<<<
