SpectraSuite Data File
++++++++++++++++++++++++++++++++++++
Date: Tue Jun 13 11:52:07 CEST 2017
User: INFO_000
Dark Spectrum Present: No
Reference Spectrum Present: No
Number of Sampled Component Spectra: 1
Spectrometers: USB4H00879
Integration Time (usec): 30000 (USB4H00879)
Spectra Averaged: 1 (USB4H00879)
Boxcar Smoothing: 0 (USB4H00879)
Correct for Electrical Dark: No (USB4H00879)
Strobe/Lamp Enabled: No (USB4H00879)
Correct for Detector Non-linearity: No (USB4H00879)
Correct for Stray Light: No (USB4H00879)
Number of Pixels in Processed Spectrum: 3648
>>>>>Begin Processed Spectral Data<<<<<
345.13	1368.04
345.34	1368.04
345.56	1368.04
345.78	1351.66
345.99	1361.90
346.21	1480.68
346.42	1535.98
346.64	1470.44
346.86	1548.26
347.07	1490.92
347.29	1503.21
347.50	1466.35
347.72	1495.02
347.94	1531.88
348.15	1497.07
348.37	1454.06
348.59	1460.20
348.80	1513.45
349.02	1628.14
349.23	1609.70
349.45	1626.09
349.67	1613.80
349.88	1658.85
350.10	1722.34
350.31	1636.33
350.53	1619.94
350.75	1687.53
350.96	1538.02
351.18	1587.18
351.39	1658.85
351.61	1642.47
351.82	1712.10
352.04	1742.82
352.26	1642.47
352.47	1662.95
352.69	1646.57
352.90	1628.14
353.12	1667.05
353.34	1597.42
353.55	1642.47
353.77	1710.05
353.98	1673.19
354.20	1669.09
354.41	1660.90
354.63	1716.20
354.85	1697.77
355.06	1632.23
355.28	1675.24
355.49	1691.62
355.71	1652.71
355.92	1650.66
356.14	1675.24
356.35	1617.90
356.57	1687.53
356.79	1712.10
357.00	1679.33
357.22	1646.57
357.43	1660.90
357.65	1716.20
357.86	1685.48
358.08	1660.90
358.29	1662.95
358.51	1781.73
358.72	1699.81
358.94	1630.18
359.16	1746.92
359.37	1673.19
359.59	1787.88
359.80	1761.25
360.02	1710.05
360.23	1701.86
360.45	1769.44
360.66	1722.34
360.88	1660.90
361.09	1765.35
361.31	1714.15
361.52	1691.62
361.74	1724.39
361.95	1755.11
362.17	1687.53
362.38	1669.09
362.60	1746.92
362.81	1744.87
363.03	1798.12
363.24	1779.68
363.46	1759.21
363.67	1742.82
363.89	1785.83
364.10	1800.16
364.32	1755.11
364.53	1716.20
364.75	1693.67
364.96	1808.36
365.18	1802.21
365.39	1751.01
365.61	1759.21
365.82	1888.23
366.04	1781.73
366.25	1720.29
366.47	1865.70
366.68	1779.68
366.90	1740.77
367.11	1783.78
367.33	1812.45
367.54	1767.40
367.76	1816.55
367.97	1798.12
368.19	1777.64
368.40	1871.84
368.62	1800.16
368.83	1789.92
369.05	1826.79
369.26	1796.07
369.48	1789.92
369.69	1839.08
369.91	1808.36
370.12	1845.22
370.33	1863.65
370.55	1716.20
370.76	1800.16
370.98	1824.74
371.19	1806.31
371.41	1828.84
371.62	1806.31
371.84	1882.08
372.05	1933.28
372.27	1787.88
372.48	1845.22
372.69	1855.46
372.91	1920.99
373.12	1947.62
373.34	1890.28
373.55	1896.42
373.77	1853.41
373.98	1859.56
374.20	1925.09
374.41	1910.75
374.62	1935.33
374.84	1964.00
375.05	1882.08
375.27	1898.47
375.48	2023.39
375.70	1906.66
375.91	1970.15
376.12	2103.26
376.34	1951.71
376.55	2025.44
376.77	2004.96
376.98	1984.48
377.19	1972.19
377.41	1949.67
377.62	2021.35
377.84	1966.05
378.05	2009.06
378.27	2052.06
378.48	2037.73
378.69	2162.66
378.91	2043.87
379.12	2084.83
379.34	2013.15
379.55	2129.89
379.76	1976.29
379.98	2099.17
380.19	2109.41
380.41	2017.25
380.62	2058.21
380.83	2138.08
381.05	2142.18
381.26	2203.61
381.47	1972.19
381.69	2140.13
381.90	2093.02
382.12	2103.26
382.33	2115.55
382.54	2082.78
382.76	2107.36
382.97	2217.95
383.19	2052.06
383.40	2160.61
383.61	2179.04
383.83	2199.52
384.04	2133.98
384.25	2285.53
384.47	2162.66
384.68	2162.66
384.89	2156.51
385.11	2226.14
385.32	2179.04
385.54	2193.37
385.75	2230.24
385.96	2303.96
386.18	2228.19
386.39	2283.49
386.60	2295.77
386.82	2269.15
387.03	2238.43
387.24	2269.15
387.46	2287.58
387.67	2326.49
387.88	2385.88
388.10	2357.21
388.31	2299.87
388.52	2310.11
388.74	2439.13
388.95	2404.32
389.16	2408.41
389.38	2435.03
389.59	2432.99
389.80	2490.33
390.02	2428.89
390.23	2379.74
390.44	2373.60
390.66	2424.80
390.87	2381.79
391.08	2375.64
391.30	2525.15
391.51	2529.24
391.72	2541.53
391.94	2478.04
392.15	2553.82
392.36	2496.47
392.58	2539.48
392.79	2539.48
393.00	2580.44
393.22	2557.91
393.43	2539.48
393.64	2645.98
393.85	2592.73
394.07	2629.59
394.28	2648.02
394.49	2695.13
394.71	2658.26
394.92	2676.70
395.13	2621.40
395.35	2756.57
395.56	2686.94
395.77	2668.50
395.98	2674.65
396.20	2723.80
396.41	2693.08
396.62	2836.44
396.84	2793.43
397.05	2721.75
397.26	2832.34
397.47	2869.20
397.69	2768.85
397.90	2846.68
398.11	2779.09
398.32	2824.15
398.54	2877.40
398.75	2760.66
398.96	2889.68
399.18	2928.60
399.39	2967.51
399.60	2936.79
399.81	2914.26
400.03	2959.31
400.24	3018.71
400.45	2985.94
400.66	3014.61
400.88	2996.18
401.09	2944.98
401.30	3047.38
401.51	3020.75
401.73	3041.23
401.94	3086.29
402.15	3102.67
402.36	2969.55
402.58	3084.24
402.79	3139.54
403.00	3119.06
403.21	3209.17
403.43	3166.16
403.64	3231.69
403.85	3063.76
404.06	3211.22
404.27	3162.06
404.49	3117.01
404.70	3145.68
404.91	3168.21
405.12	3297.23
405.34	3172.30
405.55	3381.20
405.76	3282.89
405.97	3182.54
406.19	3254.22
406.40	3184.59
406.61	3373.00
406.82	3387.34
407.03	3309.52
407.25	3295.18
407.46	3413.96
407.67	3549.13
407.88	3440.59
408.09	3278.80
408.31	3413.96
408.52	3461.07
408.73	3270.61
408.94	3346.38
409.15	3538.89
409.37	3508.17
409.58	3510.22
409.79	3538.89
410.00	3508.17
410.21	3508.17
410.43	3530.70
410.64	3502.03
410.85	3608.52
411.06	3553.23
411.27	3639.24
411.48	3637.19
411.70	3590.09
411.91	3491.79
412.12	3758.02
412.33	3563.47
412.54	3692.49
412.76	3852.23
412.97	3715.02
413.18	3702.73
413.39	3553.23
413.60	3735.50
413.81	3858.37
414.03	3651.53
414.24	3831.75
414.45	3880.90
414.66	3694.54
414.87	3809.22
415.08	3831.75
415.30	3766.21
415.51	3885.00
415.72	3790.79
415.93	3841.99
416.14	3911.62
416.35	3973.06
416.56	4018.11
416.78	3864.52
416.99	4122.56
417.20	4052.93
417.41	3882.95
417.62	4063.17
417.83	4110.27
418.04	4052.93
418.26	3946.44
418.47	4116.42
418.68	4173.76
418.89	3999.68
419.10	4136.90
419.31	4059.07
419.52	4124.61
419.73	4224.96
419.95	4198.34
420.16	4259.78
420.37	4280.25
420.58	4235.20
420.79	4200.38
421.00	4208.58
421.21	4378.56
421.42	4376.51
421.63	4386.75
421.85	4317.12
422.06	4415.42
422.27	4513.72
422.48	4267.97
422.69	4388.80
422.90	4530.11
423.11	4450.24
423.32	4503.48
423.53	4554.68
423.75	4626.36
423.96	4695.99
424.17	4710.33
424.38	4612.03
424.59	4739.00
424.80	4884.41
425.01	4798.39
425.22	4822.97
425.43	4743.10
425.64	4939.70
425.85	4886.45
426.06	4704.18
426.28	4784.06
426.49	4792.25
426.70	4863.93
426.91	4896.69
427.12	4970.42
427.33	4863.93
427.54	4929.46
427.75	5078.96
427.96	5167.03
428.17	4872.12
428.38	5185.46
428.59	5078.96
428.80	5119.92
429.01	5216.18
429.23	5205.94
429.44	5326.77
429.65	5291.95
429.86	5369.77
430.07	5089.20
430.28	5248.94
430.49	5406.64
430.70	5527.47
430.91	5476.27
431.12	5494.70
431.33	5664.68
431.54	5601.19
431.75	5613.48
431.96	5582.76
432.17	5496.75
432.38	5504.94
432.59	5750.70
432.80	5615.53
433.01	5840.81
433.22	5894.05
433.43	5636.01
433.64	5699.50
433.85	5593.00
434.06	5941.16
434.27	5785.51
434.49	5975.97
434.70	5955.49
434.91	5857.19
435.12	5760.94
435.33	5975.97
435.54	6064.04
435.75	6000.55
435.96	5879.72
436.17	5867.43
436.38	6064.04
436.59	6168.48
436.80	6039.46
437.01	6356.90
437.22	6412.19
437.43	6174.63
437.64	6072.23
437.85	6141.86
438.06	6346.66
438.27	6096.80
438.48	6340.51
438.69	6342.56
438.90	6397.85
439.11	6227.87
439.32	6358.94
439.53	6539.16
439.74	6698.91
439.95	6516.64
440.16	6506.40
440.37	6559.64
440.57	6358.94
440.78	6576.03
440.99	6424.48
441.20	6602.65
441.41	6631.32
441.62	6700.95
441.83	6549.40
442.04	6813.59
442.25	6741.91
442.46	6680.47
442.67	6877.08
442.88	7260.05
443.09	6711.19
443.30	6739.87
443.51	7020.44
443.72	7155.60
443.93	6870.94
444.14	7104.40
444.35	7002.01
444.56	7006.10
444.77	7061.40
444.98	6954.90
445.19	7092.12
445.40	7143.32
445.61	7063.44
445.81	7364.50
446.02	7329.68
446.23	7251.86
446.44	7153.55
446.65	7198.61
446.86	7301.01
447.07	7258.00
447.28	7524.24
447.49	7415.69
447.70	7364.50
447.91	7514.00
448.12	7524.24
448.33	7577.48
448.54	7686.03
448.74	7526.29
448.95	7739.27
449.16	7507.85
449.37	7821.19
449.58	7509.90
449.79	7860.10
450.00	7589.77
450.21	7939.97
450.42	7874.44
450.63	8101.76
450.84	7937.93
451.05	7968.65
451.25	7952.26
451.46	7944.07
451.67	8071.04
451.88	8148.87
452.09	8236.93
452.30	8013.70
452.51	8042.37
452.72	8222.59
452.93	8531.84
453.13	8116.10
453.34	8155.01
453.55	8281.99
453.76	8277.89
453.97	8716.16
454.18	8716.16
454.39	8456.06
454.60	8361.86
454.81	8306.56
455.01	8693.63
455.22	8347.52
455.43	8630.14
455.64	8849.27
455.85	9031.54
456.06	8908.66
456.27	8910.71
456.48	8757.11
456.68	8996.73
456.89	8859.51
457.10	9166.71
457.31	9183.09
457.52	8992.63
457.73	9275.25
457.94	9293.68
458.14	9340.79
458.35	9652.08
458.56	9592.69
458.77	9367.41
458.98	9453.42
459.19	9391.98
459.39	9592.69
459.60	9766.76
459.81	9502.58
460.02	9887.59
460.23	9598.83
460.44	9979.75
460.65	9979.75
460.85	10096.49
461.06	10172.26
461.27	9817.96
461.48	10229.60
461.69	10274.66
461.89	10051.43
462.10	10151.78
462.31	10104.68
462.52	10129.25
462.73	10231.65
462.94	10440.54
463.14	10440.54
463.35	10501.98
463.56	10925.91
463.77	10868.57
463.98	10497.89
464.18	10610.53
464.39	10776.41
464.60	11022.17
464.81	11245.40
465.02	11007.83
465.23	11294.55
465.43	11143.00
465.64	11495.25
465.85	11151.19
466.06	11104.09
466.27	11577.17
466.47	11589.46
466.68	11577.17
466.89	11642.70
467.10	11722.57
467.30	11620.17
467.51	11689.81
467.72	11953.99
467.93	11669.33
468.14	12107.59
468.34	12277.57
468.55	12412.74
468.76	12205.89
468.97	12209.99
469.17	12367.68
469.38	12625.73
469.59	12592.96
469.80	12412.74
470.01	12644.16
470.21	12597.06
470.42	12820.28
470.63	13086.52
470.84	12951.35
471.04	13283.13
471.25	12906.30
471.46	13000.51
471.67	13356.85
471.87	13301.56
472.08	13461.30
472.29	13811.50
472.50	13307.70
472.70	13549.36
472.91	13786.93
473.12	13979.43
473.33	13991.72
473.53	14270.25
473.74	14016.30
473.95	14384.93
474.16	14380.84
474.36	14509.86
474.57	14677.79
474.78	14827.29
474.99	14450.47
475.19	14524.19
475.40	14987.04
475.61	14995.23
475.81	15044.38
476.02	15357.72
476.23	15218.46
476.44	15482.64
476.64	15539.99
476.85	16119.56
477.06	15615.76
477.27	16107.27
477.47	16101.13
477.68	16183.05
477.89	16340.74
478.09	16269.06
478.30	16332.55
478.51	16242.44
478.71	16723.71
478.92	16592.64
479.13	16914.17
479.34	16983.80
479.54	17110.78
479.75	17260.28
479.96	17239.80
480.16	17254.14
480.37	17514.23
480.58	17565.43
480.78	17856.24
480.99	17915.63
481.20	17895.15
481.41	17747.70
481.61	18317.03
481.82	18222.83
482.03	18067.18
482.23	18194.15
482.44	18792.16
482.65	18759.39
482.85	18915.04
483.06	19166.94
483.27	18904.80
483.47	19072.73
483.68	19209.95
483.89	19451.61
484.09	19457.75
484.30	19578.58
484.51	19758.80
484.71	19910.35
484.92	19840.72
485.13	20213.45
485.33	20086.48
485.54	19902.16
485.75	20154.06
485.95	20448.97
486.16	20543.17
486.37	20709.06
486.57	20678.34
486.78	20825.79
486.98	20956.86
487.19	21161.66
487.40	21585.59
487.60	21294.78
487.81	21642.93
488.02	21427.90
488.22	21442.23
488.43	21509.82
488.64	21857.97
488.84	22128.30
489.05	22107.82
489.25	22167.21
489.46	22163.12
489.67	22169.26
489.87	22273.71
490.08	22523.56
490.29	22681.25
490.49	22871.72
490.70	22927.01
490.90	23158.43
491.11	23146.14
491.32	23391.90
491.52	23092.90
491.73	23539.35
491.94	23516.83
492.14	23590.55
492.35	23715.48
492.55	24037.01
492.76	24055.44
492.97	24151.70
493.17	24075.92
493.38	24223.37
493.58	24622.73
493.79	24653.45
494.00	24385.16
494.20	24825.48
494.41	24813.19
494.61	25056.90
494.82	25052.80
495.02	25056.90
495.23	25097.86
495.44	25316.99
495.64	25441.92
495.85	25544.31
496.05	25532.03
496.26	25726.58
496.47	25915.00
496.67	25671.29
496.88	26107.51
497.08	25857.65
497.29	26283.63
497.49	26023.54
497.70	26564.20
497.91	26549.87
498.11	26543.72
498.32	26725.99
498.52	26594.92
498.73	26965.60
498.93	26891.88
499.14	27012.71
499.34	26754.66
499.55	27145.83
499.76	27354.72
499.96	27293.28
500.17	27356.77
500.37	27526.75
500.58	27442.78
500.78	27475.55
500.99	27463.26
501.19	28010.07
501.40	27721.30
501.60	27833.94
501.81	27926.10
502.02	27950.68
502.22	27764.31
502.43	28403.28
502.63	28317.26
502.84	28706.38
503.04	28431.95
503.25	28390.99
503.45	28565.07
503.66	29122.12
503.86	28743.24
504.07	29046.34
504.27	28743.24
504.48	29181.51
504.68	29396.54
504.89	29654.59
505.09	29431.36
505.30	29126.21
505.50	29496.89
505.71	29732.41
505.91	29785.66
506.12	29838.90
506.32	29636.16
506.53	29933.11
506.73	30193.20
506.94	29957.69
507.14	30240.31
507.35	29881.91
507.55	30352.94
507.76	30404.14
507.96	30006.84
508.17	30264.88
508.37	30719.53
508.58	30441.01
508.78	30742.06
508.99	30940.71
509.19	30887.46
509.40	30637.61
509.60	30866.98
509.81	31290.91
510.01	30844.46
510.22	31028.77
510.42	31172.13
510.63	31067.69
510.83	31245.86
511.04	31475.23
511.24	31669.79
511.44	31254.05
511.65	31442.46
511.85	31452.70
512.06	31428.13
512.26	31776.28
512.47	31796.76
512.67	31979.03
512.88	32044.57
513.08	31827.48
513.29	32118.29
513.49	32081.43
513.69	32218.64
513.90	32339.47
514.10	32208.40
514.31	32370.19
514.51	32491.02
514.72	32452.11
514.92	32417.30
515.13	32607.76
515.33	32435.73
515.53	32818.70
515.74	32884.23
515.94	32917.00
516.15	33000.97
516.35	33156.61
516.56	33142.28
516.76	33027.59
516.96	32882.19
517.17	33177.09
517.37	33099.27
517.58	32892.43
517.78	33453.57
517.99	33715.71
518.19	33455.62
518.39	33889.79
518.60	33367.55
518.80	33805.82
519.01	33850.88
519.21	33801.72
519.41	33881.60
519.62	33756.67
519.82	34315.76
520.03	34549.23
520.23	34528.75
520.43	33900.03
520.64	34473.46
520.84	34649.58
521.05	34479.60
521.25	34739.69
521.45	34844.14
521.66	34794.99
521.86	34682.35
522.07	34864.62
522.27	34749.93
522.47	34731.50
522.68	35634.66
522.88	35229.16
523.08	35476.96
523.29	35356.13
523.49	35540.45
523.70	35823.07
523.90	36027.87
524.10	35648.99
524.31	35831.26
524.51	35685.86
524.71	36294.10
524.92	35735.01
525.12	36269.53
525.33	36271.57
525.53	36672.98
525.73	36873.68
525.94	36734.42
526.14	36482.52
526.34	36804.05
526.55	36693.46
526.75	36795.85
526.95	37105.10
527.16	36879.82
527.36	37146.06
527.56	37428.68
527.77	37604.80
527.97	37402.05
528.17	37563.84
528.38	37539.27
528.58	37475.78
528.78	37795.26
528.99	37899.71
529.19	37979.58
529.39	37914.05
529.60	38360.50
529.80	38299.06
530.00	38477.24
530.21	38735.28
530.41	38860.21
530.61	38477.24
530.82	38536.63
531.02	38593.97
531.22	38987.18
531.43	38892.97
531.63	39415.21
531.83	39503.27
532.04	40117.66
532.24	39011.76
532.44	39968.16
532.64	39968.16
532.85	39824.80
533.05	39624.10
533.25	40021.41
533.46	39695.78
533.66	40408.47
533.86	40152.48
534.07	40494.49
534.27	40586.64
534.47	40842.64
534.67	40850.83
534.88	40600.98
535.08	40842.64
535.28	41055.63
535.49	41426.31
535.69	41196.94
535.89	41592.20
536.09	41411.98
536.30	41252.23
536.50	41528.71
536.70	41528.71
536.91	41725.32
537.11	41663.88
537.31	42141.05
537.51	41862.53
537.72	42245.50
537.92	42323.32
538.12	42761.59
538.32	42104.19
538.53	42651.00
538.73	42878.32
538.93	42532.22
539.13	42704.24
539.34	42509.69
539.54	42704.24
539.74	42906.99
539.94	42954.10
540.15	43136.37
540.35	43382.12
540.55	43171.18
540.75	43494.76
540.96	43363.69
541.16	43289.96
541.36	43894.11
541.56	43505.00
541.77	43806.05
541.97	43666.79
542.17	44238.17
542.37	44115.29
542.58	43930.98
542.78	44338.52
542.98	43918.69
543.18	44502.36
543.38	44803.41
543.59	44678.49
543.79	44440.92
543.99	44262.75
544.19	44588.38
544.40	44412.25
544.60	45004.11
544.80	44537.18
545.00	44895.57
545.20	45063.50
545.41	45155.66
545.61	45124.94
545.81	45315.40
546.01	45233.49
546.21	45030.74
546.42	45028.69
546.62	45823.30
546.82	45931.84
547.02	45425.99
547.22	45886.79
547.43	45382.99
547.63	46032.19
547.83	45735.24
548.03	45987.14
548.23	46132.54
548.44	46064.96
548.64	45997.38
548.84	46056.77
549.04	46269.76
549.24	46271.81
549.45	46599.48
549.65	46267.71
549.85	46226.75
550.05	46726.46
550.25	46198.08
550.45	46658.87
550.66	46499.13
550.86	46368.06
551.06	46867.76
551.26	46810.42
551.46	47027.51
551.66	46800.18
551.87	47115.57
552.07	47002.93
552.27	46992.69
552.47	47150.38
552.67	47138.10
552.87	47269.17
553.07	47322.41
553.28	47293.74
553.48	47619.37
553.68	47588.65
553.88	47645.99
554.08	47541.55
554.28	47535.40
554.48	47351.09
554.69	48020.77
554.89	47820.07
555.09	47543.59
555.29	47740.20
555.49	47672.62
555.69	47674.66
555.89	47863.08
556.10	48237.86
556.30	48190.75
556.50	47949.09
556.70	47955.24
556.90	48645.40
557.10	48289.06
557.30	48264.48
557.50	48561.44
557.70	48375.07
557.91	48262.43
558.11	48248.10
558.31	48524.57
558.51	48346.40
558.71	48643.35
558.91	48823.58
559.11	48426.27
559.31	48727.32
559.51	48557.34
559.72	48815.38
559.92	49032.47
560.12	48704.79
560.32	48545.05
560.52	48549.15
560.72	48731.42
560.92	48702.74
561.12	48807.19
561.32	49239.31
561.52	48592.15
561.72	49270.03
561.93	48915.73
562.13	49429.77
562.33	48712.98
562.53	49409.29
562.73	48768.28
562.93	49243.41
563.13	49093.91
563.33	49165.59
563.53	49274.13
563.73	49022.23
563.93	49057.04
564.13	49501.45
564.33	49100.05
564.53	49313.04
564.74	49847.56
564.94	49460.49
565.14	49478.92
565.34	49564.94
565.54	49468.69
565.74	49614.09
565.94	50072.84
566.14	49648.91
566.34	49483.02
566.54	50121.99
566.74	49665.29
566.94	50013.44
567.14	50472.19
567.34	49792.26
567.54	50003.20
567.74	49638.67
567.94	49845.51
568.14	50197.76
568.34	50396.42
568.54	50767.10
568.74	49984.77
568.94	49917.19
569.14	50267.39
569.34	50212.10
569.54	50423.04
569.75	50277.63
569.95	50392.32
570.15	50840.82
570.35	50824.44
570.55	50447.61
570.75	50502.91
570.95	50543.87
571.15	50476.29
571.35	50271.49
571.55	51012.85
571.75	50765.05
571.95	51074.29
572.15	50357.50
572.35	51113.20
572.55	50775.29
572.75	51191.03
572.95	51184.88
573.15	51522.80
573.35	51148.02
573.55	50816.25
573.75	50916.60
573.95	50996.47
574.15	51174.64
574.35	51393.78
574.55	51258.61
574.75	51055.86
574.95	51469.55
575.15	51414.26
575.34	51666.16
575.54	52188.39
575.74	51772.65
575.94	51725.55
576.14	51594.48
576.34	51539.18
576.54	51723.50
576.74	52126.95
576.94	51688.68
577.14	51752.17
577.34	52032.74
577.54	51199.22
577.74	52278.50
577.94	52501.73
578.14	51975.40
578.34	52047.08
578.54	51858.66
578.74	51887.34
578.94	52284.64
579.14	52002.02
579.34	52550.88
579.54	52425.95
579.74	52538.59
579.94	52724.96
580.13	52360.42
580.33	52606.17
580.53	52712.67
580.73	52415.71
580.93	52602.08
581.13	52741.34
581.33	53193.94
581.53	53052.63
581.73	53050.58
581.93	52747.48
582.13	53159.12
582.33	53355.73
582.53	52917.46
582.73	53130.45
582.92	53265.62
583.12	53564.62
583.32	53357.78
583.52	53177.56
583.72	53343.44
583.92	53417.17
584.12	53648.59
584.32	53656.78
584.52	53824.71
584.72	54140.10
584.92	53796.04
585.11	54191.30
585.31	53906.63
585.51	53886.15
585.71	53753.04
585.91	53961.93
586.11	53794.00
586.31	53826.76
586.51	53738.70
586.71	53931.21
586.91	53947.59
587.10	53886.15
587.30	54291.65
587.50	54232.26
587.70	54686.91
587.90	54322.37
588.10	54504.64
588.30	54123.72
588.50	54365.38
588.69	54412.48
588.89	54060.23
589.09	54740.16
589.29	54654.14
589.49	54740.16
589.69	54334.66
589.89	54488.26
590.08	54650.05
590.28	54697.15
590.48	54658.24
590.68	55035.06
590.88	54766.78
591.08	54965.43
591.28	54699.20
591.47	55387.31
591.67	55252.15
591.87	55610.54
592.07	55018.68
592.27	55336.12
592.47	55221.43
592.67	54785.21
592.86	54957.24
593.06	55000.25
593.26	55311.54
593.46	55372.98
593.66	55458.99
593.86	55366.84
594.05	55375.03
594.25	55395.51
594.45	55641.26
594.65	55321.78
594.85	54781.12
595.05	55893.16
595.24	56136.87
595.44	55626.93
595.64	55712.94
595.84	55827.63
596.04	55792.81
596.23	55891.12
596.43	55981.23
596.63	55796.91
596.83	56269.99
597.03	56095.91
597.22	56505.51
597.42	55614.64
597.62	56128.68
597.82	56380.58
598.02	56151.21
598.21	56485.03
598.41	56063.14
598.61	56472.74
598.81	56206.50
599.01	56730.78
599.20	56319.14
599.40	56853.66
599.60	56474.79
599.80	56503.46
600.00	56956.06
600.19	56855.71
600.39	56726.69
600.59	56689.82
600.79	56878.24
600.98	56360.10
601.18	56753.31
601.38	57029.79
601.58	56730.78
601.78	56984.73
601.97	57046.17
602.17	57398.42
602.37	57201.82
602.57	56802.46
602.76	57597.07
602.96	57511.06
603.16	57570.45
603.36	57416.85
603.55	57468.05
603.75	57156.76
603.95	57756.81
604.15	57697.42
604.34	57402.52
604.54	57965.71
604.74	57939.08
604.94	57951.37
605.13	57822.35
605.33	57543.83
605.53	57463.96
605.73	58090.63
605.92	57556.11
606.12	58070.15
606.32	58109.07
606.52	57502.87
606.71	57969.80
606.91	58072.20
607.11	57773.20
607.30	58264.71
607.50	58139.78
607.70	58307.72
607.90	57918.60
608.09	58061.96
608.29	58098.83
608.49	58174.60
608.68	58231.94
608.88	58430.60
609.08	58291.33
609.28	58336.39
609.47	58072.20
609.67	58590.34
609.87	58512.52
610.06	58766.46
610.26	58727.55
610.46	58530.95
610.66	58098.83
610.85	58596.48
611.05	58520.71
611.25	58614.91
611.44	58375.30
611.64	58471.56
611.84	58391.68
612.03	58432.64
612.23	58737.79
612.43	58244.23
612.62	58154.12
612.82	58864.77
613.02	58625.15
613.21	58563.71
613.41	58610.82
613.61	59022.46
613.80	58117.26
614.00	58612.87
614.20	58508.42
614.39	58446.98
614.59	58573.95
614.79	58619.01
614.98	58440.84
615.18	58274.95
615.38	58852.48
615.57	58113.16
615.77	58786.94
615.97	58815.61
616.16	58850.43
616.36	58629.25
616.56	58721.41
616.75	58199.18
616.95	58311.81
617.15	58457.22
617.34	58709.12
617.54	58522.76
617.74	58469.51
617.93	58766.46
618.13	58213.51
618.32	58268.81
618.52	58432.64
618.72	58510.47
618.91	57937.04
619.11	58576.00
619.31	58377.35
619.50	57988.24
619.70	58195.08
619.90	58391.68
620.09	58315.91
620.29	58465.41
620.48	58094.73
620.68	58762.37
620.88	58170.50
621.07	58246.28
621.27	58596.48
621.46	58166.41
621.66	57623.70
621.86	57930.89
622.05	58410.12
622.25	58473.60
622.44	57736.34
622.64	57961.61
622.84	58344.58
623.03	57820.30
623.23	58199.18
623.42	58033.29
623.62	58365.06
623.82	58045.58
624.01	58172.55
624.21	58311.81
624.40	57926.80
624.60	58406.02
624.80	57818.25
624.99	57830.54
625.19	57656.46
625.38	58113.16
625.58	57711.76
625.77	58324.10
625.97	58207.37
626.17	57697.42
626.36	57910.41
626.56	57900.17
626.75	57293.97
626.95	58203.27
627.14	57607.31
627.34	57760.91
627.54	57873.55
627.73	58098.83
627.93	57838.73
628.12	57918.60
628.32	57836.69
628.51	57971.85
628.71	57670.80
628.90	58029.19
629.10	57799.82
629.30	57828.49
629.49	57984.14
629.69	57402.52
629.88	57781.39
630.08	57506.96
630.27	57621.65
630.47	57824.40
630.66	57377.94
630.86	58299.53
631.05	57339.03
631.25	58035.34
631.44	57756.81
631.64	57644.18
631.84	57367.70
632.03	57848.97
632.23	57554.07
632.42	58373.25
632.62	57828.49
632.81	57230.49
633.01	57349.27
633.20	57963.66
633.40	57949.32
633.59	57834.64
633.79	57050.27
633.98	57779.34
634.18	57564.31
634.37	57521.30
634.57	57545.87
634.76	57834.64
634.96	57687.18
635.15	57859.21
635.35	57578.64
635.54	57496.72
635.74	57797.77
635.93	57490.58
636.13	57681.04
636.32	57695.38
636.52	57322.65
636.71	57986.19
636.91	57443.48
637.10	57674.90
637.30	57404.56
637.49	57934.99
637.69	57640.08
637.88	57652.37
638.08	57195.67
638.27	57662.61
638.46	57463.96
638.66	57312.41
638.85	57541.78
639.05	57791.63
639.24	57830.54
639.44	57439.38
639.63	57697.42
639.83	57601.17
640.02	57402.52
640.22	57285.78
640.41	57963.66
640.61	57361.56
640.80	57369.75
640.99	57468.05
641.19	58004.62
641.38	57160.86
641.58	57826.45
641.77	57601.17
641.97	57025.69
642.16	57613.46
642.36	57476.24
642.55	58143.88
642.74	57281.69
642.94	58215.56
643.13	57062.55
643.33	57773.20
643.52	57638.03
643.72	57140.38
643.91	57564.31
644.10	57791.63
644.30	57746.57
644.49	57554.07
644.69	57695.38
644.88	57912.46
645.08	57484.43
645.27	57582.74
645.46	57173.14
645.66	57619.60
645.85	57578.64
646.05	58014.86
646.24	57533.59
646.43	58061.96
646.63	58049.67
646.82	57568.40
647.02	57322.65
647.21	57826.45
647.40	57287.83
647.60	57592.98
647.79	57742.48
647.99	57500.82
648.18	57635.98
648.37	57805.97
648.57	57496.72
648.76	57906.32
648.96	57498.77
649.15	58039.43
649.34	57615.50
649.54	57773.20
649.73	57455.76
649.92	57904.27
650.12	57824.40
650.31	57881.74
650.51	57818.25
650.70	58080.39
650.89	57535.63
651.09	57965.71
651.28	57867.40
651.47	57994.38
651.67	57472.15
651.86	58057.87
652.06	57080.98
652.25	57826.45
652.44	57736.34
652.64	57748.62
652.83	57769.10
653.02	57394.32
653.22	57681.04
653.41	57472.15
653.60	57678.99
653.80	57234.58
653.99	58051.72
654.18	57736.34
654.38	57656.46
654.57	57463.96
654.76	57756.81
654.96	57572.50
655.15	57296.02
655.34	57193.62
655.54	57351.32
655.73	57244.82
655.92	57758.86
656.12	57457.81
656.31	57605.26
656.50	57689.23
656.70	57443.48
656.89	57228.44
657.08	57707.66
657.28	57547.92
657.47	57683.09
657.66	57556.11
657.86	57435.28
658.05	57689.23
658.24	57646.22
658.43	57115.80
658.63	57621.65
658.82	57472.15
659.01	57459.86
659.21	57394.32
659.40	57648.27
659.59	57197.72
659.79	57779.34
659.98	57730.19
660.17	57644.18
660.36	57699.47
660.56	57285.78
660.75	57539.73
660.94	57203.86
661.14	57435.28
661.33	57615.50
661.52	57416.85
661.71	57701.52
661.91	57283.73
662.10	57113.75
662.29	57592.98
662.49	57212.06
662.68	57437.33
662.87	57762.96
663.06	57724.05
663.26	57255.06
663.45	57904.27
663.64	57349.27
663.83	57549.97
664.03	57701.52
664.22	57672.85
664.41	57576.59
664.60	56870.04
664.80	57083.03
664.99	57029.79
665.18	56951.96
665.37	57142.42
665.57	57093.27
665.76	57142.42
665.95	57535.63
666.14	57103.51
666.34	57173.14
666.53	57248.92
666.72	56997.02
666.91	56614.05
667.11	57150.62
667.30	57011.35
667.49	56888.48
667.68	57074.84
667.87	57089.18
668.07	57171.10
668.26	57044.12
668.45	56878.24
668.64	56974.49
668.84	57484.43
669.03	56868.00
669.22	56829.08
669.41	57003.16
669.60	56775.84
669.80	56470.69
669.99	56865.95
670.18	57031.83
670.37	56804.51
670.57	57019.55
670.76	56439.97
670.95	56902.81
671.14	56616.10
671.33	56732.83
671.53	57158.81
671.72	56644.77
671.91	56669.34
672.10	56374.44
672.29	57130.14
672.48	56401.06
672.68	57177.24
672.87	56376.48
673.06	56288.42
673.25	56542.37
673.44	56728.73
673.64	56313.00
673.83	56509.60
674.02	56638.62
674.21	56382.63
674.40	56218.79
674.59	56057.00
674.79	55870.64
674.98	56372.39
675.17	56415.40
675.36	56097.96
675.55	56466.59
675.74	55966.89
675.94	56003.75
676.13	56179.88
676.32	56280.23
676.51	56464.55
676.70	56155.30
676.89	56206.50
677.08	56335.52
677.28	55882.92
677.47	56415.40
677.66	56399.01
677.85	56419.49
678.04	56255.65
678.23	56048.81
678.42	56038.57
678.62	55667.89
678.81	56200.36
679.00	55452.85
679.19	56288.42
679.38	55970.99
679.57	55530.67
679.76	55938.22
679.96	55643.31
680.15	55577.78
680.34	55846.06
680.53	55882.92
680.72	55901.36
680.91	55731.37
681.10	55700.65
681.29	55547.06
681.48	55676.08
681.68	55862.44
681.87	55606.45
682.06	55315.64
682.25	55082.17
682.44	55366.84
682.63	55444.66
682.82	55317.68
683.01	55495.86
683.20	55129.27
683.39	55184.57
683.59	55297.20
683.78	54729.92
683.97	54953.15
684.16	54965.43
684.35	54893.75
684.54	55139.51
684.73	55123.13
684.92	54504.64
685.11	54871.23
685.30	54940.86
685.49	55221.43
685.69	54559.94
685.88	55237.81
686.07	54660.29
686.26	54801.60
686.45	54596.80
686.64	54889.66
686.83	54537.41
687.02	54803.64
687.21	54787.26
687.40	55030.97
687.59	54633.66
687.78	54893.75
687.97	54826.17
688.16	54615.23
688.35	54406.34
688.54	54113.48
688.74	54688.96
688.93	54179.01
689.12	54633.66
689.31	54000.84
689.50	54355.14
689.69	53847.24
689.88	53544.14
690.07	53968.07
690.26	53918.92
690.45	54086.85
690.64	53849.29
690.83	54009.03
691.02	53576.91
691.21	53877.96
691.40	54136.01
691.59	53738.70
691.78	53867.72
691.97	54254.79
692.16	53753.04
692.35	54009.03
692.54	53675.21
692.73	53961.93
692.92	53712.08
693.11	53658.83
693.30	53288.15
693.49	53277.91
693.68	53650.64
693.87	53716.17
694.06	53040.34
694.25	53296.34
694.44	53042.39
694.63	52937.94
694.82	53159.12
695.01	52978.90
695.20	52933.85
695.39	52839.64
695.58	53320.91
695.77	52606.17
695.96	52880.60
696.15	52698.33
696.34	52778.20
696.53	53077.21
696.72	52632.80
696.91	52776.15
697.10	52638.94
697.29	52341.99
697.48	52704.48
697.67	52645.08
697.86	52262.11
698.05	52485.34
698.24	52614.37
698.43	52278.50
698.62	52346.08
698.81	52102.37
699.00	52638.94
699.19	52042.98
699.38	52325.60
699.57	52032.74
699.76	52571.36
699.95	51956.97
700.14	52030.69
700.32	51909.86
700.51	52096.23
700.70	52323.55
700.89	52174.05
701.08	52059.37
701.27	51928.30
701.46	52071.65
701.65	51148.02
701.84	52028.65
702.03	51627.24
702.22	51533.04
702.41	51328.24
702.60	51873.00
702.79	51361.01
702.98	51416.30
703.17	51844.33
703.35	51313.90
703.54	51315.95
703.73	51825.90
703.92	51762.41
704.11	51578.09
704.30	51250.42
704.49	51463.41
704.68	50965.75
704.87	51307.76
705.06	50623.74
705.25	51086.58
705.43	51100.92
705.62	51076.34
705.81	50920.70
706.00	50871.54
706.19	50617.60
706.38	50728.19
706.57	50853.11
706.76	50261.25
706.95	50357.50
707.14	50763.00
707.32	50400.51
707.51	50562.30
707.70	50513.15
707.89	50703.61
708.08	50273.54
708.27	50531.58
708.46	50466.05
708.65	50410.75
708.84	50167.04
709.02	50068.74
709.21	50517.25
709.40	50547.96
709.59	49978.63
709.78	49642.76
709.97	50386.18
710.16	49630.47
710.34	50140.42
710.53	50056.45
710.72	49566.99
710.91	49960.20
711.10	50076.93
711.29	49784.07
711.48	49665.29
711.66	49728.78
711.85	49360.14
712.04	49485.07
712.23	49806.60
712.42	49607.95
712.61	49366.29
712.80	49450.25
712.98	49466.64
713.17	49597.71
713.36	49433.87
713.55	49065.24
713.74	49392.91
713.93	49210.64
714.11	49419.53
714.30	48790.81
714.49	48801.05
714.68	49425.68
714.87	49067.28
715.06	49020.18
715.24	48946.45
715.43	49179.92
715.62	48741.66
715.81	48547.10
716.00	49161.49
716.18	48880.92
716.37	48411.93
716.56	48477.47
716.75	48581.91
716.94	48446.75
717.12	48244.00
717.31	48649.50
717.50	48299.30
717.69	48227.62
717.88	48223.52
718.06	48344.35
718.25	48360.73
718.44	47945.00
718.63	48170.27
718.82	47729.96
719.00	48100.64
719.19	47828.26
719.38	47844.65
719.57	47445.29
719.76	47154.48
719.94	47451.44
720.13	47240.50
720.32	47236.40
720.51	47461.68
720.69	47404.33
720.88	47303.98
721.07	47148.34
721.26	46886.20
721.44	47185.20
721.63	46798.13
721.82	46855.48
722.01	46878.00
722.20	47146.29
722.38	46136.64
722.57	46378.30
722.76	46554.43
722.95	46775.61
723.13	46867.76
723.32	46105.92
723.51	46200.13
723.70	46214.46
723.88	46093.63
724.07	46140.74
724.26	46060.87
724.44	45516.11
724.63	46370.11
724.82	46009.67
725.01	45858.12
725.19	46196.03
725.38	45608.26
725.57	45983.04
725.76	46067.01
725.94	45788.49
726.13	45475.15
726.32	45686.09
726.51	45692.23
726.69	46046.53
726.88	45819.20
727.07	45673.80
727.25	45440.33
727.44	45698.37
727.63	45442.38
727.82	45272.40
728.00	45536.59
728.19	45507.91
728.38	45874.50
728.56	44981.59
728.75	45407.56
728.94	45307.21
729.12	45395.28
729.31	45528.39
729.50	45241.68
729.69	45249.87
729.87	45370.70
730.06	45163.85
730.25	45200.72
730.43	45647.18
730.62	44553.56
730.81	45186.38
730.99	45036.88
731.18	45245.77
731.37	45174.09
731.55	45604.17
731.74	45632.84
731.93	45270.35
732.11	44746.07
732.30	45143.38
732.49	44692.82
732.67	45223.25
732.86	44784.98
733.05	44977.49
733.23	44531.03
733.42	45028.69
733.61	44633.43
733.79	44623.19
733.98	44891.48
734.17	44719.45
734.35	44578.14
734.54	44488.03
734.73	44848.47
734.91	44842.32
735.10	44002.66
735.29	45090.13
735.47	44334.43
735.66	44668.25
735.84	44428.63
736.03	44451.16
736.22	44621.14
736.40	44344.67
736.59	44565.85
736.78	44340.57
736.96	44334.43
737.15	44162.40
737.33	44242.27
737.52	44586.33
737.71	44178.78
737.89	43996.51
738.08	44057.95
738.27	43990.37
738.45	44250.46
738.64	44172.64
738.82	43998.56
739.01	43937.12
739.20	43791.72
739.38	43711.84
739.57	43662.69
739.75	44393.82
739.94	43674.98
740.13	43726.18
740.31	43664.74
740.50	43566.44
740.68	43611.49
740.87	43597.16
741.06	43627.88
741.24	43666.79
741.43	43537.77
741.61	43767.14
741.80	43085.17
741.99	42974.58
742.17	43249.00
742.36	43345.26
742.54	43300.20
742.73	43074.93
742.91	43466.09
743.10	43371.88
743.29	43324.78
743.47	43365.74
743.66	43269.48
743.84	43136.37
744.03	42796.40
744.21	43072.88
744.40	43124.08
744.59	42978.67
744.77	42915.19
744.96	42812.79
745.14	43246.96
745.33	42620.28
745.51	42485.11
745.70	42624.37
745.88	42726.77
746.07	42552.69
746.26	42661.24
746.44	42235.26
746.63	42702.20
746.81	42569.08
747.00	42212.73
747.18	42442.10
747.37	42618.23
747.55	42587.51
747.74	42474.87
747.92	42120.57
748.11	42481.02
748.29	42229.12
748.48	41958.78
748.66	42294.65
748.85	42476.92
749.03	42200.44
749.22	42042.75
749.41	41878.91
749.59	42018.17
749.78	42124.67
749.96	41364.87
750.15	41778.56
750.33	42012.03
750.52	41590.15
750.70	41645.44
750.89	41381.26
751.07	41241.99
751.26	41891.20
751.44	41612.68
751.63	41508.23
751.81	41186.70
752.00	41287.05
752.18	41710.98
752.37	40869.26
752.55	40983.95
752.74	41299.34
752.92	40938.90
753.10	40908.18
753.29	41102.73
753.47	40734.10
753.66	40684.95
753.84	41217.42
754.03	40887.70
754.21	40609.17
754.40	40818.07
754.58	40961.42
754.77	41008.53
754.95	40576.40
755.14	40979.85
755.32	40668.56
755.51	40533.40
755.69	40945.04
755.88	40514.97
756.06	40263.07
756.24	40211.87
756.43	40060.32
756.61	40254.87
756.80	40023.45
756.98	39841.18
757.17	40646.04
757.35	40449.43
757.54	39882.14
757.72	40312.22
757.90	40009.12
758.09	39787.94
758.27	39976.35
758.46	39949.73
758.64	39998.88
758.83	39785.89
759.01	39904.67
759.19	39861.66
759.38	39730.59
759.56	39951.77
759.75	39617.96
759.93	39488.93
760.12	39613.86
760.30	39376.30
760.48	39712.16
760.67	39853.47
760.85	39597.48
761.04	39597.48
761.22	39736.74
761.40	39216.55
761.59	39484.84
761.77	39038.38
761.96	39173.55
762.14	39439.78
762.32	39085.48
762.51	38727.09
762.69	39044.52
762.88	38964.65
763.06	38784.43
763.24	38921.65
763.43	39046.57
763.61	39126.44
763.80	38987.18
763.98	38919.60
764.16	39062.96
764.35	38612.40
764.53	38213.05
764.72	38780.34
764.90	38751.66
765.08	38561.20
765.27	38421.94
765.45	38231.48
765.63	38073.79
765.82	38405.56
766.00	38380.98
766.18	37905.85
766.37	38254.01
766.55	37973.44
766.74	38008.25
766.92	37793.22
767.10	38264.25
767.29	37612.99
767.47	37418.44
767.65	37737.92
767.84	37639.62
768.02	38036.92
768.20	37189.06
768.39	37705.15
768.57	37582.27
768.75	38069.69
768.94	37467.59
769.12	37742.02
769.30	37483.97
769.49	37651.91
769.67	37070.28
769.85	37012.94
770.04	37125.58
770.22	36994.51
770.40	36978.12
770.59	36888.01
770.77	37242.31
770.95	36955.60
771.14	37154.25
771.32	36742.61
771.50	36670.93
771.69	36791.76
771.87	37322.18
772.05	36298.20
772.24	36408.79
772.42	36556.24
772.60	36574.67
772.78	36416.98
772.97	36568.53
773.15	36705.74
773.33	36361.69
773.52	36046.30
773.70	36214.23
773.88	36490.71
774.07	36267.48
774.25	36326.87
774.43	36341.21
774.61	36224.47
774.80	36566.48
774.98	36675.02
775.16	36476.37
775.34	36390.36
775.53	36097.50
775.71	36619.73
775.89	36373.97
776.08	36244.95
776.26	36435.41
776.44	36255.19
776.62	36027.87
776.81	36107.74
776.99	36513.23
777.17	36400.60
777.35	36324.82
777.54	36654.54
777.72	36111.83
777.90	36326.87
778.08	36810.19
778.27	36361.69
778.45	36869.58
778.63	36947.40
778.81	36156.89
779.00	36330.97
779.18	36591.06
779.36	36865.49
779.54	36529.62
779.73	36304.34
779.91	36842.96
780.09	36490.71
780.27	36914.64
780.46	37055.95
780.64	36707.79
780.82	36666.83
781.00	36494.80
781.19	36814.29
781.37	36744.66
781.55	36765.14
781.73	36971.98
781.91	36730.32
782.10	36662.74
782.28	36777.42
782.46	36888.01
782.64	36996.56
782.82	36668.88
783.01	36705.74
783.19	36933.07
783.37	37068.23
783.55	36333.01
783.74	36621.78
783.92	36728.27
784.10	37041.61
784.28	36740.56
784.46	36662.74
784.64	36687.31
784.83	36650.45
785.01	36734.42
785.19	36675.02
785.37	36963.79
785.55	36298.20
785.74	36724.18
785.92	36351.45
786.10	36343.25
786.28	36437.46
786.46	36638.16
786.64	36158.94
786.83	36378.07
787.01	36552.15
787.19	36679.12
787.37	36138.46
787.55	36134.36
787.74	36242.90
787.92	36398.55
788.10	35816.93
788.28	35933.66
788.46	35966.43
788.64	35784.16
788.82	36203.99
789.01	35950.04
789.19	36019.67
789.37	35735.01
789.55	35870.17
789.73	35597.79
789.91	35165.67
790.09	35374.56
790.28	35694.05
790.46	35173.86
790.64	35558.88
790.82	35057.13
791.00	35206.63
791.18	35415.52
791.36	35456.48
791.55	35370.47
791.73	35354.08
791.91	35016.17
792.09	35016.17
792.27	34780.65
792.45	34848.24
792.63	34975.21
792.81	34553.33
793.00	34719.21
793.18	34579.95
793.36	34706.93
793.54	34547.18
793.72	33996.28
793.90	34514.42
794.08	34352.63
794.26	34260.47
794.44	34166.26
794.62	33461.76
794.81	33983.99
794.99	33904.12
795.17	33654.27
795.35	33803.77
795.53	33676.80
795.71	33705.47
795.89	33420.80
796.07	33500.67
796.25	33263.11
796.43	32876.04
796.61	32962.06
796.80	32722.44
796.98	32972.30
797.16	32925.19
797.34	32757.26
797.52	32409.11
797.70	32972.30
797.88	32454.16
798.06	32409.11
798.24	32597.52
798.42	32536.08
798.60	32372.24
798.78	31893.02
798.96	32163.35
799.14	32421.39
799.32	32355.86
799.51	31997.46
799.69	31923.74
799.87	31979.03
800.05	31587.87
800.23	31866.39
800.41	31542.81
800.59	31649.31
800.77	31305.25
800.95	31700.51
801.13	31366.69
801.31	31149.60
801.49	31264.29
801.67	31079.97
801.85	31563.29
802.03	30944.81
802.21	30936.62
802.39	31020.58
802.57	30955.05
802.75	30797.35
802.93	30651.95
803.11	30527.02
803.29	30305.84
803.47	30391.86
803.65	30346.80
803.83	30230.07
804.01	30432.82
804.19	30023.22
804.37	30316.08
804.55	30283.31
804.73	30264.88
804.91	29963.83
805.09	29824.57
805.27	29746.75
805.45	30088.76
805.63	29759.03
805.81	29699.64
805.99	29503.04
806.17	29726.27
806.35	29562.43
806.53	29259.33
806.71	29341.25
806.89	29414.98
807.07	29144.64
807.25	29451.84
807.43	28960.33
807.61	29126.21
807.79	28935.75
807.97	28743.24
808.15	28462.67
808.33	28784.20
808.51	28311.12
808.69	28782.15
808.87	28196.43
809.05	28237.39
809.23	28077.65
809.41	27922.01
809.59	28515.92
809.77	28208.72
809.95	28165.71
810.13	28091.99
810.31	28221.01
810.49	27876.95
810.67	27776.60
810.84	27811.42
811.02	28001.88
811.20	27764.31
811.38	27999.83
811.56	27762.26
811.74	27666.01
811.92	27600.47
812.10	27432.54
812.28	27604.57
812.46	27557.47
812.64	27438.69
812.82	27176.55
813.00	27293.28
813.18	27426.40
813.36	27315.81
813.53	26992.23
813.71	27088.48
813.89	27151.97
814.07	27141.73
814.25	26984.04
814.43	26637.93
814.61	26812.01
814.79	26848.87
814.97	26609.26
815.15	26709.61
815.33	26470.00
815.50	26617.45
815.68	26807.91
815.86	26371.69
816.04	26418.80
816.22	26306.16
816.40	26721.90
816.58	26492.52
816.76	26508.91
816.94	26250.86
817.11	26238.58
817.29	26056.31
817.47	25790.07
817.65	26416.75
817.83	25933.43
818.01	25462.40
818.19	25816.69
818.37	25681.53
818.54	25513.59
818.72	25523.83
818.90	25810.55
819.08	25472.64
819.26	25773.69
819.44	25396.86
819.62	25400.96
819.80	25699.96
819.97	25544.31
820.15	25273.98
820.33	25124.48
820.51	25183.87
820.69	24899.20
820.87	25073.28
821.05	25323.13
821.22	25048.71
821.40	25022.08
821.58	24856.20
821.76	25095.81
821.94	24942.21
822.12	24829.57
822.29	25067.14
822.47	24960.64
822.65	24876.68
822.83	25022.08
823.01	24839.81
823.19	24749.70
823.36	24542.86
823.54	24452.75
823.72	24544.91
823.90	24551.05
824.08	24350.35
824.25	24403.60
824.43	24143.50
824.61	24131.22
824.79	24346.25
824.97	24194.70
825.15	24180.37
825.32	24327.82
825.50	23959.19
825.68	24098.45
825.86	23989.91
826.04	23924.37
826.21	23815.83
826.39	23910.04
826.57	23733.91
826.75	23684.76
826.93	23860.88
827.10	23617.18
827.28	23735.96
827.46	23781.01
827.64	23484.06
827.81	23344.80
827.99	23561.88
828.17	23492.25
828.35	23545.50
828.53	23271.07
828.70	23574.17
828.88	23410.33
829.06	23242.40
829.24	23432.86
829.41	23330.46
829.59	23389.85
829.77	23096.99
829.95	23254.69
830.12	23242.40
830.30	23088.80
830.48	23133.86
830.66	23246.49
830.84	23152.29
831.01	23035.55
831.19	22943.39
831.37	22828.71
831.55	22787.75
831.72	22711.97
831.90	22744.74
832.08	22828.71
832.25	22621.86
832.43	22924.96
832.61	22447.79
832.79	22546.09
832.96	22601.38
833.14	22580.90
833.32	22736.55
833.50	22824.61
833.67	22482.60
833.85	22519.46
834.03	22277.80
834.20	22410.92
834.38	22593.19
834.56	22398.63
834.74	22109.87
834.91	22329.00
835.09	22372.01
835.27	22113.97
835.44	22150.83
835.62	21810.87
835.80	22171.31
835.98	22316.72
836.15	21989.04
836.33	21792.44
836.51	22435.50
836.68	21886.64
836.86	21991.09
837.04	21968.56
837.21	21751.48
837.39	21731.00
837.57	21546.68
837.75	21745.33
837.92	21634.74
838.10	21790.39
838.28	21290.68
838.45	21597.88
838.63	21616.31
838.81	21786.29
838.98	21515.96
839.16	21431.99
839.34	21302.97
839.51	21284.54
839.69	21110.46
839.87	21391.03
840.04	21182.14
840.22	21335.74
840.40	21245.63
840.57	20825.79
840.75	21149.37
840.93	20960.96
841.10	21180.09
841.28	21477.05
841.46	20913.86
841.63	20938.43
841.81	20594.37
841.98	20999.87
842.16	20952.77
842.34	20922.05
842.51	20713.16
842.69	20735.68
842.87	20604.61
843.04	20936.38
843.22	20735.68
843.40	20815.55
843.57	20694.72
843.75	20836.03
843.92	20899.52
844.10	20827.84
844.28	20838.08
844.45	20756.16
844.63	20399.82
844.81	20321.99
844.98	20483.78
845.16	20164.30
845.33	20281.03
845.51	20481.74
845.69	20479.69
845.86	20111.05
846.04	20225.74
846.21	20360.91
846.39	20180.68
846.57	20326.09
846.74	20389.58
846.92	20149.96
847.09	20158.16
847.27	20119.24
847.45	20125.39
847.62	20164.30
847.80	20166.35
847.97	20133.58
848.15	19853.01
848.32	19924.69
848.50	20049.61
848.68	19734.23
848.85	19801.81
849.03	19506.90
849.20	19990.22
849.38	19701.46
849.56	19951.31
849.73	19701.46
849.91	19777.23
850.08	19721.94
850.26	19644.12
850.43	19511.00
850.61	19398.36
850.78	19259.10
850.96	19605.20
851.14	19363.54
851.31	19498.71
851.49	19363.54
851.66	19252.95
851.84	19631.83
852.01	19597.01
852.19	19574.49
852.36	19115.74
852.54	19443.42
852.71	19498.71
852.89	18892.51
853.07	19209.95
853.24	18988.77
853.42	19295.96
853.59	19238.62
853.77	19322.59
853.94	19025.63
854.12	18988.77
854.29	18792.16
854.47	18933.47
854.64	18757.35
854.82	18968.29
854.99	18697.95
855.17	18564.84
855.34	18638.56
855.52	18857.70
855.69	18523.88
855.87	19011.29
856.04	18671.33
856.22	18661.09
856.39	18517.73
856.57	18783.97
856.74	18521.83
856.92	18710.24
857.09	18532.07
857.27	18372.33
857.44	18601.70
857.62	18693.86
857.79	18523.88
857.97	18362.09
858.14	18548.45
858.32	18261.74
858.49	18284.26
858.67	18155.24
858.84	18366.18
859.02	18071.28
859.19	18122.48
859.37	18018.03
859.54	18097.90
859.72	18128.62
859.89	18165.48
860.06	18015.98
860.24	17923.82
860.41	17778.42
860.59	17823.47
860.76	18116.33
860.94	17870.58
861.11	17946.35
861.29	17764.08
861.46	17831.66
861.64	17772.27
861.81	17579.76
861.98	17710.83
862.16	17446.65
862.33	17712.88
862.51	17463.03
862.68	17772.27
862.86	17790.70
863.03	17764.08
863.21	17612.53
863.38	17415.93
863.55	17483.51
863.73	17258.23
863.90	17647.35
864.08	17299.19
864.25	17327.86
864.43	17309.43
864.60	17223.42
864.77	17071.87
864.95	17247.99
865.12	17112.83
865.30	17379.06
865.47	16887.55
865.64	17168.12
865.82	17151.74
865.99	17411.83
866.17	17000.19
866.34	16930.56
866.51	16969.47
866.69	17045.24
866.86	16936.70
867.04	16635.65
867.21	16830.21
867.38	16588.55
867.56	16690.95
867.73	16850.69
867.91	16662.27
868.08	16666.37
868.25	16725.76
868.43	16520.96
868.60	16484.10
868.78	16385.80
868.95	16754.43
869.12	16389.89
869.30	16439.05
869.47	16285.45
869.64	16506.63
869.82	16135.95
869.99	16277.26
870.16	16463.62
870.34	16350.98
870.51	16224.01
870.69	16316.17
870.86	16109.32
871.03	16066.31
871.21	15906.57
871.38	16076.55
871.55	15892.24
871.73	16051.98
871.90	15984.40
872.07	15986.44
872.25	15652.63
872.42	15906.57
872.59	15820.56
872.77	15824.65
872.94	15816.46
873.11	15677.20
873.29	15834.89
873.46	15546.13
873.63	15720.21
873.81	15626.00
873.98	15257.37
874.15	15523.60
874.33	15410.96
874.50	15464.21
874.67	15281.94
874.85	15345.43
875.02	15167.26
875.19	15195.93
875.37	15177.50
875.54	15281.94
875.71	15165.21
875.88	14997.28
876.06	15226.65
876.23	15187.74
876.40	14962.46
876.58	14841.63
876.75	14937.88
876.92	14919.45
877.10	15048.47
877.27	14909.21
877.44	14802.72
877.61	14624.54
877.79	14700.32
877.96	14706.46
878.13	14612.26
878.31	14712.61
878.48	14710.56
878.65	14614.30
878.82	14554.91
879.00	14487.33
879.17	14638.88
879.34	14518.05
879.51	14315.30
879.69	14239.53
879.86	14376.74
880.03	14298.92
880.21	14366.50
880.38	14393.12
880.55	14266.15
880.72	14405.41
880.90	14321.45
881.07	14395.17
881.24	14307.11
881.41	14280.49
881.59	14098.22
881.76	14329.64
881.93	14192.42
882.10	14118.70
882.28	14051.11
882.45	13999.91
882.62	13997.87
882.79	14094.12
882.96	13670.19
883.14	14198.57
883.31	13991.72
883.48	14114.60
883.65	14122.79
883.83	13948.72
884.00	13891.37
884.17	14036.78
884.34	13887.28
884.51	13924.14
884.69	13852.46
884.86	13860.65
885.03	13920.04
885.20	13758.25
885.38	14016.30
885.55	13612.85
885.72	13545.27
885.89	13745.97
886.06	13698.86
886.24	13662.00
886.41	13731.63
886.58	13731.63
886.75	13856.56
886.92	13610.80
887.10	13541.17
887.27	13489.97
887.44	13614.90
887.61	13686.58
887.78	13496.11
887.95	13618.99
888.13	13377.33
888.30	13475.63
888.47	13190.97
888.64	13395.76
888.81	13475.63
888.99	13502.26
889.16	13080.38
889.33	13319.99
889.50	13152.06
889.67	13268.79
889.84	13107.00
890.01	13145.91
890.19	13082.42
890.36	13176.63
890.53	13111.10
890.70	13193.01
890.87	13063.99
891.04	13078.33
891.22	13088.57
891.39	13104.95
891.56	12844.86
891.73	13039.42
891.90	12908.35
892.07	12863.29
892.24	12920.63
892.42	12750.65
892.59	12984.12
892.76	12801.85
892.93	12601.15
893.10	13018.94
893.27	12859.20
893.44	12664.64
893.61	12793.66
893.79	12971.83
893.96	12691.26
894.13	12627.78
894.30	12689.21
894.47	12588.86
894.64	12906.30
894.81	12703.55
894.98	13092.66
895.15	12709.69
895.33	12478.27
895.50	12724.03
895.67	12785.47
895.84	12746.56
896.01	12455.75
896.18	12373.83
896.35	12826.43
896.52	12552.00
896.69	12683.07
896.86	12427.07
897.04	12496.71
897.21	12484.42
897.38	12494.66
897.55	12443.46
897.72	12615.49
897.89	12488.51
898.06	12414.79
898.23	12504.90
898.40	12511.04
898.57	12465.99
898.74	12339.01
898.91	12500.80
899.08	12570.43
899.26	12431.17
899.43	12500.80
899.60	12498.75
899.77	12433.22
899.94	12414.79
900.11	12375.88
900.28	12605.25
900.45	12269.38
900.62	12412.74
900.79	12429.12
900.96	12412.74
901.13	12414.79
901.30	12267.33
901.47	12150.60
901.64	12472.13
901.81	12617.54
901.98	12330.82
902.15	12420.93
902.32	12404.55
902.49	12355.40
902.66	12302.15
902.83	12244.81
903.01	12302.15
903.18	12431.17
903.35	12341.06
903.52	12232.52
903.69	12504.90
903.86	12289.86
904.03	12296.00
904.20	12420.93
904.37	12433.22
904.54	12302.15
904.71	12115.78
904.88	12437.31
905.05	12289.86
905.22	12406.59
905.39	12281.67
905.56	12269.38
905.73	12193.61
905.90	12349.25
906.07	12025.67
906.24	12410.69
906.41	12396.35
906.58	12162.89
906.75	12115.78
906.92	12085.06
907.09	11992.90
907.26	12193.61
907.43	12158.79
907.60	12166.98
907.77	12144.45
907.93	12029.77
908.10	11915.08
908.27	11982.67
908.44	12021.58
908.61	12001.10
908.78	11923.27
908.95	12003.14
909.12	12105.54
909.29	11933.51
909.46	11972.43
909.63	11906.89
909.80	12072.78
909.97	12042.06
910.14	12060.49
910.31	12017.48
910.48	11986.76
910.65	11964.23
910.82	11784.01
910.99	11708.24
911.16	11837.26
911.33	11833.16
911.50	11812.68
911.66	11802.44
911.83	11820.88
912.00	11814.73
912.17	11542.35
912.34	11568.98
912.51	11708.24
912.68	11585.36
912.85	11863.88
913.02	11470.67
913.19	11433.81
913.36	11700.05
913.53	11556.69
913.70	11474.77
913.86	11671.37
914.03	11435.86
914.20	11368.27
914.37	11575.12
914.54	11448.15
914.71	11419.47
914.88	11528.02
915.05	11302.74
915.22	11368.27
915.39	11423.57
915.55	11308.88
915.72	11130.71
915.89	11239.25
916.06	11288.40
916.23	11226.96
916.40	11087.70
916.57	11165.53
916.74	11114.33
916.91	11104.09
917.07	10882.91
917.24	10930.01
917.41	11099.99
917.58	10991.45
917.75	11056.98
917.92	11024.22
918.09	10930.01
918.26	10966.87
918.42	11042.65
918.59	11044.70
918.76	10917.72
918.93	10823.51
919.10	10674.01
919.27	10583.90
919.44	10676.06
919.60	10686.30
919.77	10637.15
919.94	10471.26
920.11	10637.15
920.28	10618.72
920.45	10540.90
920.61	10430.30
920.78	10155.88
920.95	10325.86
921.12	10260.32
921.29	10202.98
921.46	10444.64
921.62	10145.64
921.79	10100.58
921.96	10184.55
922.13	10069.86
922.30	9959.27
922.47	10049.38
922.63	10145.64
922.80	10014.57
922.97	9852.78
923.14	9869.16
923.31	9822.06
923.47	9770.86
923.64	9875.31
923.81	9756.52
923.98	9672.56
924.15	9652.08
924.32	9652.08
924.48	9699.18
924.65	9725.80
924.82	9457.52
924.99	9625.45
925.15	9541.49
925.32	9426.80
925.49	9062.26
925.66	9523.05
925.83	9279.35
925.99	9303.92
926.16	9217.91
926.33	9305.97
926.50	9308.02
926.67	9326.45
926.83	9144.18
927.00	9011.06
927.17	9009.01
927.34	9068.41
927.50	9068.41
927.67	9000.82
927.84	8953.72
928.01	8916.86
928.17	8945.53
928.34	8959.86
928.51	8722.30
928.68	8574.85
928.84	8652.67
929.01	8834.94
929.18	8773.50
929.35	8605.56
929.51	8607.61
929.68	8402.82
929.85	8609.66
930.02	8519.55
930.18	8525.69
930.35	8408.96
930.52	8308.61
930.69	8400.77
930.85	8347.52
931.02	8109.96
931.19	8146.82
931.36	8216.45
931.52	7968.65
931.69	8296.32
931.86	8247.17
932.02	8107.91
932.19	8007.56
932.36	7987.08
932.53	8101.76
932.69	7958.41
932.86	7935.88
933.03	7874.44
933.19	7731.08
933.36	7802.76
933.53	7825.29
933.70	7616.40
933.86	7694.22
934.03	7718.79
934.20	7520.14
934.36	7473.04
934.53	7405.46
934.70	7384.98
934.86	7139.22
935.03	7313.30
935.20	7290.77
935.36	7249.81
935.53	7053.20
935.70	7141.27
935.86	7233.43
936.03	7030.68
936.20	6879.13
936.36	6762.39
936.53	6743.96
936.70	6862.74
936.86	6799.26
937.03	6766.49
937.20	6604.70
937.36	6737.82
937.53	6481.82
937.70	6490.01
937.86	6313.89
938.03	6348.70
938.20	6268.83
938.36	6264.74
938.53	6033.32
938.70	5955.49
938.86	5949.35
939.03	6014.88
939.20	5742.50
939.36	5896.10
939.53	5826.47
939.70	5851.05
939.86	5660.59
940.03	5543.85
940.19	5523.37
940.36	5519.28
940.53	5529.52
940.69	5472.17
940.86	5517.23
941.03	5275.57
941.19	5275.57
941.36	5314.48
941.52	5048.24
941.69	5099.44
941.86	4927.41
942.02	4976.56
942.19	5042.10
942.35	5085.11
942.52	4843.45
942.69	4831.16
942.85	4773.82
943.02	4722.62
943.18	4726.71
943.35	4646.84
943.52	4589.50
943.68	4724.66
943.85	4603.83
944.01	4667.32
944.18	4530.11
944.35	4577.21
944.51	4538.30
944.68	4466.62
944.84	4466.62
945.01	4386.75
945.17	4460.48
945.34	4468.67
945.51	4577.21
945.67	4526.01
945.84	4378.56
946.00	4464.57
946.17	4489.15
946.33	4298.69
946.50	4327.36
946.67	4345.79
946.83	4364.22
947.00	4372.41
947.16	4491.20
947.33	4317.12
947.49	4372.41
947.66	4241.34
947.82	4358.08
947.99	4216.77
948.16	4243.39
948.32	4202.43
948.49	4403.13
948.65	4282.30
948.82	4347.84
948.98	4290.49
949.15	4343.74
949.31	4353.98
949.48	4366.27
949.64	4233.15
949.81	4335.55
949.97	4278.21
950.14	4386.75
950.30	4196.29
950.47	4300.73
950.63	4364.22
950.80	4388.80
950.96	4321.21
951.13	4337.60
951.30	4278.21
951.46	4341.69
951.63	4370.37
951.79	4310.97
951.96	4390.84
952.12	4464.57
952.29	4349.89
952.45	4427.71
952.62	4362.17
952.78	4310.97
952.94	4380.61
953.11	4353.98
953.27	4341.69
953.44	4485.05
953.60	4425.66
953.77	4427.71
953.93	4431.80
954.10	4335.55
954.26	4460.48
954.43	4417.47
954.59	4546.49
954.76	4458.43
954.92	4450.24
955.09	4521.92
955.25	4491.20
955.42	4448.19
955.58	4427.71
955.75	4460.48
955.91	4417.47
956.07	4560.83
956.24	4431.80
956.40	4489.15
956.57	4540.35
956.73	4321.21
956.90	4472.76
957.06	4460.48
957.23	4403.13
957.39	4493.24
957.56	4399.04
957.72	4468.67
957.88	4380.61
958.05	4452.28
958.21	4374.46
958.38	4329.41
958.54	4425.66
958.71	4448.19
958.87	4454.33
959.03	4415.42
959.20	4390.84
959.36	4417.47
959.53	4358.08
959.69	4376.51
959.85	4577.21
960.02	4335.55
960.18	4458.43
960.35	4450.24
960.51	4501.44
960.68	4368.32
960.84	4386.75
961.00	4450.24
961.17	4415.42
961.33	4401.08
961.50	4368.32
961.66	4290.49
961.82	4511.68
961.99	4433.85
962.15	4351.93
962.31	4333.50
962.48	4353.98
962.64	4347.84
962.81	4392.89
962.97	4368.32
963.13	4353.98
963.30	4403.13
963.46	4419.52
963.62	4337.60
963.79	4450.24
963.95	4304.83
964.12	4337.60
964.28	4321.21
964.44	4386.75
964.61	4427.71
964.77	4335.55
964.93	4380.61
965.10	4231.10
965.26	4310.97
965.42	4235.20
965.59	4325.31
965.75	4284.35
965.92	4370.37
966.08	4208.58
966.24	4353.98
966.41	4319.17
966.57	4218.82
966.73	4290.49
966.90	4364.22
967.06	4333.50
967.22	4317.12
967.39	4323.26
967.55	4169.66
967.71	4128.70
967.88	4329.41
968.04	4104.13
968.20	4259.78
968.37	4091.84
968.53	4073.41
968.69	4091.84
968.85	4112.32
969.02	4149.18
969.18	4112.32
969.34	4274.11
969.51	4110.27
969.67	4202.43
969.83	4063.17
970.00	4192.19
970.16	4147.14
970.32	4091.84
970.48	4184.00
970.65	4130.75
970.81	4108.23
970.97	4050.88
971.14	4001.73
971.30	4151.23
971.46	4181.95
971.63	4044.74
971.79	3944.39
971.95	4077.51
972.11	4032.45
972.28	4030.40
972.44	3989.44
972.60	4063.17
972.76	3966.92
972.93	3993.54
973.09	3989.44
973.25	3985.35
973.42	3964.87
973.58	4022.21
973.74	3940.29
973.90	3954.63
974.07	4030.40
974.23	3999.68
974.39	3971.01
974.55	3893.19
974.72	3917.76
974.88	3792.84
975.04	3917.76
975.20	3880.90
975.37	3993.54
975.53	3827.65
975.69	3844.04
975.85	3940.29
976.01	3850.18
976.18	3899.33
976.34	3676.10
976.50	3819.46
976.66	3942.34
976.83	3798.98
976.99	3860.42
977.15	3796.93
977.31	3700.68
977.47	3944.39
977.64	3710.92
977.80	3770.31
977.96	3743.69
978.12	3735.50
978.29	3788.74
978.45	3796.93
978.61	3680.20
978.77	3782.60
978.93	3749.83
979.10	3702.73
979.26	3737.54
979.42	3680.20
979.58	3694.54
979.74	3614.66
979.91	3618.76
980.07	3590.09
980.23	3629.00
980.39	3690.44
980.55	3684.30
980.71	3645.38
980.88	3633.10
981.04	3583.95
981.20	3534.79
981.36	3579.85
981.52	3594.19
981.68	3518.41
981.85	3524.55
982.01	3487.69
982.17	3618.76
982.33	3467.21
982.49	3635.14
982.65	3526.60
982.82	3588.04
982.98	3571.66
983.14	3477.45
983.30	3442.64
983.46	3424.20
983.62	3547.08
983.79	3444.68
983.95	3534.79
984.11	3342.28
984.27	3360.72
984.43	3432.40
984.59	3319.76
984.75	3497.93
984.91	3432.40
985.08	3413.96
985.24	3358.67
985.40	3344.33
985.56	3358.67
985.72	3481.55
985.88	3399.63
986.04	3391.44
986.20	3401.68
986.37	3327.95
986.53	3391.44
986.69	3397.58
986.85	3303.37
987.01	3233.74
987.17	3291.09
987.33	3442.64
987.49	3260.37
987.65	3246.03
987.82	3252.17
987.98	3241.93
988.14	3219.41
988.30	3227.60
988.46	3203.02
988.62	3092.43
988.78	3166.16
988.94	3178.45
989.10	3117.01
989.26	3135.44
989.42	3067.86
989.59	3131.34
989.75	3192.78
989.91	3254.22
990.07	3137.49
990.23	3145.68
990.39	3125.20
990.55	3147.73
990.71	3127.25
990.87	3092.43
991.03	3094.48
991.19	3037.14
991.35	3180.50
991.51	3061.71
991.67	3102.67
991.83	3080.14
992.00	3067.86
992.16	3065.81
992.32	3102.67
992.48	3184.59
992.64	3035.09
992.80	3076.05
992.96	3000.27
993.12	3092.43
993.28	2998.23
993.44	2949.08
993.60	2985.94
993.76	2957.27
993.92	3033.04
994.08	2977.75
994.24	2987.99
994.40	2957.27
994.56	2908.12
994.72	2904.02
994.88	2912.21
995.04	2885.59
995.20	2893.78
995.36	2965.46
995.52	2887.64
995.68	2871.25
995.84	2879.44
996.00	3051.47
996.16	2885.59
996.32	2891.73
996.48	2942.93
996.64	2990.03
996.80	2922.45
996.96	2916.31
997.12	2818.00
997.28	2861.01
997.44	2869.20
997.60	2822.10
997.76	2795.48
997.92	2793.43
998.08	2770.90
998.24	2770.90
998.40	2858.96
998.56	2748.37
998.72	2748.37
998.88	2715.61
999.04	2674.65
999.20	2731.99
999.36	2760.66
999.52	2789.33
999.68	2727.89
999.84	2813.91
1000.00	2693.08
1000.16	2744.28
1000.32	2709.46
1000.48	2758.61
1000.64	2699.22
1000.80	2662.36
1000.95	2580.44
1001.11	2672.60
1001.27	2680.79
1001.43	2605.02
1001.59	2590.68
1001.75	2654.17
1001.91	2691.03
1002.07	2674.65
1002.23	2674.65
1002.39	2562.01
1002.55	2668.50
1002.71	2691.03
1002.87	2555.86
1003.03	2582.49
1003.19	2467.80
1003.34	2582.49
1003.50	2553.82
1003.66	2562.01
1003.82	2549.72
1003.98	2523.10
1004.14	2512.86
1004.30	2531.29
1004.46	2543.58
1004.62	2557.91
1004.78	2574.30
1004.94	2541.53
1005.09	2609.11
1005.25	2504.67
1005.41	2484.19
1005.57	2553.82
1005.73	2480.09
1005.89	2439.13
1006.05	2582.49
1006.21	2574.30
1006.37	2471.90
1006.52	2527.19
1006.68	2381.79
1006.84	2510.81
1007.00	2484.19
1007.16	2516.95
1007.32	2453.47
1007.48	2496.47
1007.64	2461.66
1007.79	2428.89
1007.95	2394.08
1008.11	2410.46
1008.27	2426.84
1008.43	2424.80
1008.59	2400.22
1008.75	2426.84
1008.91	2414.56
1009.06	2451.42
1009.22	2332.64
1009.38	2410.46
1009.54	2389.98
1009.70	2353.12
1009.86	2408.41
1010.01	2271.20
1010.17	2289.63
1010.33	2301.92
1010.49	2389.98
1010.65	2353.12
1010.81	2267.10
1010.96	2289.63
1011.12	2285.53
1011.28	2312.16
1011.44	2283.49
1011.60	2244.57
1011.76	2328.54
1011.91	2367.45
1012.07	2248.67
1012.23	2279.39
1012.39	2297.82
1012.55	2349.02
1012.71	2256.86
1012.86	2248.67
1013.02	2377.69
1013.18	2306.01
1013.34	2207.71
1013.50	2252.77
1013.65	2187.23
1013.81	2285.53
1013.97	2234.33
1014.13	2238.43
1014.29	2258.91
1014.44	2228.19
1014.60	2271.20
1014.76	2138.08
1014.92	2289.63
1015.07	2168.80
1015.23	2222.05
1015.39	2201.57
1015.55	2199.52
1015.71	2197.47
1015.86	2260.96
1016.02	2181.09
1016.18	2230.24
1016.34	2213.85
1016.49	2045.92
1016.65	2203.61
1016.81	2125.79
1016.97	2129.89
1017.12	2166.75
1017.28	2136.03
1017.44	2156.51
1017.60	2095.07
1017.75	2123.74
1017.91	2074.59
1018.07	2195.42
1018.23	2131.94
1018.38	2129.89
1018.54	2109.41
1018.70	2113.50
1018.86	2166.75
1019.01	2037.73
1019.17	2031.58
1019.33	2156.51
1019.49	2084.83
1019.64	2084.83
1019.80	2097.12
1019.96	2095.07
1020.12	2045.92
1020.27	2045.92
1020.43	2099.17
1020.59	2033.63
1020.74	2050.02
1020.90	2072.54
1021.06	2064.35
1021.22	2056.16
1021.37	2007.01
1021.53	2056.16
1021.69	2086.88
1021.84	2025.44
1022.00	2037.73
1022.16	2101.22
1022.31	1916.90
1022.47	2045.92
1022.63	2052.06
1022.79	1984.48
1022.94	2029.54
1023.10	2025.44
1023.26	1959.91
1023.41	2052.06
1023.57	1935.33
1023.73	1988.58
1023.88	1990.63
1024.04	1953.76
1024.20	1939.43
1024.35	2029.54
1024.51	2004.96
1024.67	1949.67
1024.82	2082.78
1024.98	1994.72
1025.14	2037.73
1025.29	1912.80
1025.45	2045.92
1025.61	1949.67
1025.76	1931.23
1025.92	1984.48
1026.08	2033.63
1026.23	1943.52
1026.39	1943.52
1026.55	1923.04
1026.70	1871.84
1026.86	1898.47
1027.02	1920.99
1027.17	1910.75
1027.33	1951.71
1027.48	1920.99
1027.64	1892.32
1027.80	1892.32
1027.95	1886.18
1028.11	1863.65
1028.27	1869.80
1028.42	1888.23
1028.58	1908.71
1028.73	1832.93
1028.89	1783.78
1029.05	1875.94
1029.20	1906.66
>>>>>End Processed Spectral Data<<<<<
