SpectraSuite Data File
++++++++++++++++++++++++++++++++++++
Date: Tue Jun 13 11:52:06 CEST 2017
User: INFO_000
Dark Spectrum Present: No
Reference Spectrum Present: No
Number of Sampled Component Spectra: 1
Spectrometers: USB4H00879
Integration Time (usec): 30000 (USB4H00879)
Spectra Averaged: 1 (USB4H00879)
Boxcar Smoothing: 0 (USB4H00879)
Correct for Electrical Dark: No (USB4H00879)
Strobe/Lamp Enabled: No (USB4H00879)
Correct for Detector Non-linearity: No (USB4H00879)
Correct for Stray Light: No (USB4H00879)
Number of Pixels in Processed Spectrum: 3648
>>>>>Begin Processed Spectral Data<<<<<
345.13	1282.03
345.34	1282.03
345.56	1282.03
345.78	1343.47
345.99	1314.80
346.21	1482.73
346.42	1531.88
346.64	1460.20
346.86	1578.98
347.07	1466.35
347.29	1505.26
347.50	1488.87
347.72	1527.78
347.94	1497.07
348.15	1478.63
348.37	1542.12
348.59	1562.60
348.80	1470.44
349.02	1558.50
349.23	1660.90
349.45	1632.23
349.67	1599.46
349.88	1613.80
350.10	1726.44
350.31	1677.29
350.53	1609.70
350.75	1644.52
350.96	1642.47
351.18	1646.57
351.39	1578.98
351.61	1624.04
351.82	1759.21
352.04	1689.57
352.26	1624.04
352.47	1693.67
352.69	1652.71
352.90	1564.65
353.12	1667.05
353.34	1570.79
353.55	1681.38
353.77	1669.09
353.98	1642.47
354.20	1646.57
354.41	1654.76
354.63	1703.91
354.85	1681.38
355.06	1650.66
355.28	1609.70
355.49	1628.14
355.71	1673.19
355.92	1669.09
356.14	1595.37
356.35	1648.61
356.57	1669.09
356.79	1681.38
357.00	1611.75
357.22	1599.46
357.43	1662.95
357.65	1658.85
357.86	1689.57
358.08	1695.72
358.29	1785.83
358.51	1710.05
358.72	1699.81
358.94	1744.87
359.16	1644.52
359.37	1667.05
359.59	1691.62
359.80	1804.26
360.02	1740.77
360.23	1689.57
360.45	1712.10
360.66	1708.01
360.88	1736.68
361.09	1716.20
361.31	1804.26
361.52	1665.00
361.74	1771.49
361.95	1712.10
362.17	1726.44
362.38	1714.15
362.60	1779.68
362.81	1744.87
363.03	1789.92
363.24	1789.92
363.46	1783.78
363.67	1834.98
363.89	1744.87
364.10	1687.53
364.32	1740.77
364.53	1738.73
364.75	1691.62
364.96	1857.51
365.18	1734.63
365.39	1757.16
365.61	1789.92
365.82	1853.41
366.04	1810.40
366.25	1744.87
366.47	1849.32
366.68	1759.21
366.90	1791.97
367.11	1810.40
367.33	1810.40
367.54	1796.07
367.76	1787.88
367.97	1806.31
368.19	1785.83
368.40	1820.64
368.62	1843.17
368.83	1753.06
369.05	1822.69
369.26	1808.36
369.48	1763.30
369.69	1718.25
369.91	1818.60
370.12	1877.99
370.33	1929.19
370.55	1849.32
370.76	1771.49
370.98	1808.36
371.19	1765.35
371.41	1847.27
371.62	1837.03
371.84	1755.11
372.05	1902.56
372.27	1880.04
372.48	1826.79
372.69	1826.79
372.91	1867.75
373.12	1920.99
373.34	1853.41
373.55	1880.04
373.77	1816.55
373.98	1884.13
374.20	1933.28
374.41	1968.10
374.62	1970.15
374.84	1953.76
375.05	1929.19
375.27	2000.87
375.48	2043.87
375.70	1933.28
375.91	2068.45
376.12	1996.77
376.34	1877.99
376.55	1988.58
376.77	2043.87
376.98	1972.19
377.19	1951.71
377.41	1953.76
377.62	2099.17
377.84	2072.54
378.05	2017.25
378.27	2047.97
378.48	2070.50
378.69	2103.26
378.91	2080.74
379.12	2052.06
379.34	2078.69
379.55	2052.06
379.76	2113.50
379.98	2095.07
380.19	2131.94
380.41	2074.59
380.62	2050.02
380.83	2017.25
381.05	2088.93
381.26	2164.70
381.47	2101.22
381.69	2129.89
381.90	2213.85
382.12	2115.55
382.33	2191.33
382.54	2084.83
382.76	2170.85
382.97	2115.55
383.19	2146.27
383.40	2260.96
383.61	2117.60
383.83	2199.52
384.04	2201.57
384.25	2109.41
384.47	2258.91
384.68	2215.90
384.89	2150.37
385.11	2277.34
385.32	2156.51
385.54	2215.90
385.75	2215.90
385.96	2213.85
386.18	2273.25
386.39	2308.06
386.60	2330.59
386.82	2312.16
387.03	2336.73
387.24	2349.02
387.46	2222.05
387.67	2308.06
387.88	2250.72
388.10	2340.83
388.31	2332.64
388.52	2308.06
388.74	2310.11
388.95	2463.71
389.16	2365.40
389.38	2396.12
389.59	2473.95
389.80	2400.22
390.02	2455.51
390.23	2543.58
390.44	2447.32
390.66	2381.79
390.87	2424.80
391.08	2459.61
391.30	2396.12
391.51	2486.23
391.72	2512.86
391.94	2490.33
392.15	2617.30
392.36	2449.37
392.58	2461.66
392.79	2455.51
393.00	2627.54
393.22	2580.44
393.43	2707.41
393.64	2574.30
393.85	2672.60
394.07	2570.20
394.28	2654.17
394.49	2680.79
394.71	2635.74
394.92	2813.91
395.13	2637.78
395.35	2648.02
395.56	2617.30
395.77	2754.52
395.98	2686.94
396.20	2727.89
396.41	2631.64
396.62	2820.05
396.84	2744.28
397.05	2705.37
397.26	2815.96
397.47	2815.96
397.69	2658.26
397.90	2842.58
398.11	2881.49
398.32	2805.72
398.54	2818.00
398.75	2811.86
398.96	2887.64
399.18	2920.40
399.39	2830.29
399.60	3041.23
399.81	2940.88
400.03	2875.35
400.24	3057.62
400.45	2955.22
400.66	2926.55
400.88	2977.75
401.09	3145.68
401.30	3053.52
401.51	3141.58
401.73	3018.71
401.94	3088.34
402.15	3053.52
402.36	3051.47
402.58	3069.91
402.79	3162.06
403.00	3086.29
403.21	3141.58
403.43	3088.34
403.64	3186.64
403.85	3086.29
404.06	3127.25
404.27	3172.30
404.49	3198.93
404.70	3121.10
404.91	3280.85
405.12	3241.93
405.34	3188.69
405.55	3379.15
405.76	3176.40
405.97	3213.26
406.19	3260.37
406.40	3340.24
406.61	3366.86
406.82	3354.57
407.03	3350.48
407.25	3325.90
407.46	3348.43
407.67	3381.20
407.88	3452.88
408.09	3450.83
408.31	3387.34
408.52	3409.87
408.73	3379.15
408.94	3413.96
409.15	3432.40
409.37	3506.12
409.58	3575.75
409.79	3432.40
410.00	3579.85
410.21	3456.97
410.43	3532.75
410.64	3534.79
410.85	3524.55
411.06	3518.41
411.27	3604.42
411.48	3596.23
411.70	3602.38
411.91	3598.28
412.12	3676.10
412.33	3481.55
412.54	3596.23
412.76	3764.17
412.97	3776.45
413.18	3610.57
413.39	3719.11
413.60	3590.09
413.81	3674.06
414.03	3850.18
414.24	3766.21
414.45	3805.13
414.66	3766.21
414.87	3762.12
415.08	3782.60
415.30	3864.52
415.51	3850.18
415.72	3870.66
415.93	3854.28
416.14	3878.85
416.35	4011.97
416.56	3999.68
416.78	3891.14
416.99	3997.64
417.20	3973.06
417.41	4038.59
417.62	4081.60
417.83	4075.46
418.04	4104.13
418.26	4067.27
418.47	4153.28
418.68	4138.94
418.89	3977.16
419.10	4147.14
419.31	4134.85
419.52	4175.81
419.73	4171.71
419.95	4227.01
420.16	4118.47
420.37	4116.42
420.58	4184.00
420.79	4231.10
421.00	4222.91
421.21	4497.34
421.42	4153.28
421.63	4360.13
421.85	4452.28
422.06	4437.95
422.27	4335.55
422.48	4270.01
422.69	4401.08
422.90	4423.61
423.11	4558.78
423.32	4534.20
423.53	4548.54
423.75	4562.87
423.96	4646.84
424.17	4589.50
424.38	4638.65
424.59	4530.11
424.80	4800.44
425.01	4720.57
425.22	4814.77
425.43	4753.34
425.64	4863.93
425.85	5015.48
426.06	4695.99
426.28	4999.09
426.49	4872.12
426.70	4853.69
426.91	4921.27
427.12	4898.74
427.33	4954.04
427.54	5025.72
427.75	5158.83
427.96	5113.78
428.17	5099.44
428.38	5158.83
428.59	5246.90
428.80	5126.07
429.01	5115.83
429.23	5195.70
429.44	5341.10
429.65	5296.05
429.86	5418.93
430.07	5222.32
430.28	5328.81
430.49	5294.00
430.70	5523.37
430.91	5310.38
431.12	5349.29
431.33	5615.53
431.54	5386.16
431.75	5705.64
431.96	5582.76
432.17	5468.08
432.38	5554.09
432.59	5683.11
432.80	5625.77
433.01	5773.22
433.22	5863.33
433.43	5693.35
433.64	5726.12
433.85	5642.15
434.06	5855.14
434.27	5894.05
434.49	5732.26
434.70	5973.92
434.91	6000.55
435.12	6080.42
435.33	6008.74
435.54	5943.21
435.75	5935.01
435.96	5922.73
436.17	6029.22
436.38	6059.94
436.59	6045.60
436.80	6184.87
437.01	6369.18
437.22	6289.31
437.43	6195.11
437.64	6027.17
437.85	6244.26
438.06	6279.07
438.27	6168.48
438.48	6152.10
438.69	6285.22
438.90	6340.51
439.11	6244.26
439.32	6305.70
439.53	6442.91
439.74	6594.46
439.95	6522.78
440.16	6616.99
440.37	6567.84
440.57	6608.80
440.78	6569.88
440.99	6490.01
441.20	6686.62
441.41	6645.66
441.62	6780.82
441.83	6647.71
442.04	6805.40
442.25	6678.43
442.46	6754.20
442.67	7042.96
442.88	7108.50
443.09	6797.21
443.30	6864.79
443.51	6848.41
443.72	7147.41
443.93	6795.16
444.14	7112.60
444.35	6903.70
444.56	7077.78
444.77	7028.63
444.98	6975.38
445.19	7063.44
445.40	7204.75
445.61	7057.30
445.81	7239.57
446.02	7104.40
446.23	7167.89
446.44	7151.51
446.65	7094.16
446.86	7286.67
447.07	7309.20
447.28	7532.43
447.49	7511.95
447.70	7335.82
447.91	7499.66
448.12	7464.85
448.33	7643.02
448.54	7585.68
448.74	7495.57
448.95	7675.79
449.16	7464.85
449.37	7866.25
449.58	7530.38
449.79	7942.02
450.00	7647.12
450.21	7915.40
450.42	7909.26
450.63	7962.50
450.84	8028.04
451.05	7833.48
451.25	7829.38
451.46	7737.23
451.67	8087.43
451.88	8130.44
452.09	7999.37
452.30	8112.00
452.51	8191.88
452.72	8193.92
452.93	8548.22
453.13	8097.67
453.34	8222.59
453.55	8238.98
453.76	8314.75
453.97	8888.18
454.18	8509.31
454.39	8505.21
454.60	8488.83
454.81	8529.79
455.01	8771.45
455.22	8363.90
455.43	8603.52
455.64	8746.87
455.85	8851.32
456.06	8923.00
456.27	8750.97
456.48	8908.66
456.68	9054.07
456.89	8798.07
457.10	9185.14
457.31	9166.71
457.52	8890.23
457.73	9133.94
457.94	9410.42
458.14	9174.90
458.35	9607.02
458.56	9330.55
458.77	9344.88
458.98	9598.83
459.19	9600.88
459.39	9510.77
459.60	9817.96
459.81	9611.12
460.02	9820.01
460.23	9600.88
460.44	9928.55
460.65	9934.70
460.85	9832.30
461.06	9936.74
461.27	9934.70
461.48	10227.56
461.69	10463.07
461.89	10141.54
462.10	10159.97
462.31	10155.88
462.52	10241.89
462.73	10334.05
462.94	10530.66
463.14	10649.44
463.35	10456.93
463.56	11005.78
463.77	10651.49
463.98	10526.56
464.18	10637.15
464.39	10821.47
464.60	11097.94
464.81	11042.65
465.02	10803.04
465.23	11317.08
465.43	10991.45
465.64	11448.15
465.85	11505.49
466.06	11171.67
466.27	11474.77
466.47	11640.65
466.68	11573.07
466.89	11485.01
467.10	11896.65
467.30	11392.85
467.51	11841.36
467.72	11982.67
467.93	11835.21
468.14	11896.65
468.34	12326.72
468.55	12267.33
468.76	12013.38
468.97	12060.49
469.17	12416.83
469.38	12275.52
469.59	12701.50
469.80	12478.27
470.01	12582.72
470.21	12762.94
470.42	12824.38
470.63	13029.18
470.84	12855.10
471.04	13033.27
471.25	12988.22
471.46	12957.50
471.67	13426.48
471.87	13233.97
472.08	13526.83
472.29	13555.51
472.50	13328.18
472.70	13578.03
472.91	13731.63
473.12	13852.46
473.33	14001.96
473.53	14278.44
473.74	13877.04
473.95	14307.11
474.16	14649.12
474.36	14337.83
474.57	14481.19
474.78	14780.19
474.99	14409.51
475.19	14489.38
475.40	15140.63
475.61	14933.79
475.81	15204.12
476.02	15568.66
476.23	15304.47
476.44	15343.38
476.64	15939.34
476.85	15845.13
477.06	15638.29
477.27	16000.78
477.47	16125.71
477.68	16097.03
477.89	16269.06
478.09	16205.58
478.30	16094.99
478.51	16207.62
478.71	16451.33
478.92	16709.38
479.13	16760.58
479.34	17168.12
479.54	16981.76
479.75	17200.89
479.96	17071.87
480.16	17366.78
480.37	17460.98
480.58	17614.58
480.78	17616.63
480.99	17895.15
481.20	17948.40
481.41	18177.77
481.61	18218.73
481.82	18302.70
482.03	18341.61
482.23	17985.26
482.44	18687.71
482.65	18872.03
482.85	18831.07
483.06	18872.03
483.27	19056.35
483.47	19021.53
483.68	19175.13
483.89	19257.05
484.09	19154.65
484.30	19343.06
484.51	19707.60
484.71	19640.02
484.92	19781.33
485.13	19977.94
485.33	20080.33
485.54	20264.65
485.75	20244.17
485.95	20430.54
486.16	20612.81
486.37	20774.60
486.57	20674.24
486.78	20778.69
486.98	20969.15
487.19	21200.57
487.40	21362.36
487.60	21298.88
487.81	21515.96
488.02	21448.38
488.22	21337.79
488.43	21860.02
488.64	21704.37
488.84	22023.86
489.05	22062.77
489.25	21911.22
489.46	22767.27
489.67	22396.59
489.87	22711.97
490.08	22382.25
490.29	22757.03
490.49	22812.32
490.70	23142.05
490.90	23338.65
491.11	23092.90
491.32	23301.79
491.52	23232.16
491.73	23309.98
491.94	23461.53
492.14	23402.14
492.35	23938.71
492.55	23936.66
492.76	24061.58
492.97	24225.42
493.17	24008.34
493.38	24333.96
493.58	24235.66
493.79	24573.58
494.00	24512.14
494.20	24903.30
494.41	25036.42
494.61	24788.61
494.82	24901.25
495.02	24837.76
495.23	24981.12
495.44	24983.17
495.64	25448.06
495.85	25683.58
496.05	25806.45
496.26	25716.34
496.47	26271.34
496.67	25583.23
496.88	26099.31
497.08	25798.26
497.29	25747.06
497.49	26130.03
497.70	26523.24
497.91	26408.56
498.11	26429.04
498.32	26457.71
498.52	26601.07
498.73	26920.55
498.93	26762.86
499.14	27068.00
499.34	27149.92
499.55	27201.12
499.76	27180.64
499.96	27518.56
500.17	26973.80
500.37	27559.52
500.58	27602.52
500.78	27674.20
500.99	27848.28
501.19	27797.08
501.40	28116.56
501.60	27924.05
501.81	28020.31
502.02	28073.56
502.22	27864.66
502.43	28407.37
502.63	28247.63
502.84	28571.21
503.04	28573.26
503.25	28563.02
503.45	28497.49
503.66	29009.48
503.86	28585.55
504.07	29120.07
504.27	28726.86
504.48	29328.96
504.68	29417.02
504.89	29232.71
505.09	29328.96
505.30	29365.82
505.50	29619.77
505.71	29574.72
505.91	29781.56
506.12	29679.16
506.32	29697.59
506.53	30008.89
506.73	29986.36
506.94	30303.79
507.14	30019.13
507.35	29967.93
507.55	30023.22
507.76	30144.05
507.96	30121.52
508.17	30314.03
508.37	30359.09
508.58	30570.03
508.78	30453.30
508.99	30559.79
509.19	30699.05
509.40	30803.50
509.60	31213.09
509.81	30846.51
510.01	31120.93
510.22	31264.29
510.42	31385.12
510.63	31276.58
510.83	31217.19
511.04	31348.26
511.24	31624.73
511.44	31368.74
511.65	31897.11
511.85	31292.96
512.06	31759.90
512.26	31452.70
512.47	31761.95
512.67	31643.17
512.88	31936.02
513.08	31737.37
513.29	32222.74
513.49	32232.98
513.69	32273.94
513.90	32368.15
514.10	32167.45
514.31	32284.18
514.51	32716.30
514.72	32159.25
514.92	32329.23
515.13	32618.00
515.33	32253.46
515.53	32867.85
515.74	32673.29
515.94	32695.82
516.15	32781.84
516.35	32640.53
516.56	33306.12
516.76	32806.41
516.96	33093.13
517.17	33320.45
517.37	33295.88
517.58	33304.07
517.78	33308.16
517.99	33486.34
518.19	33431.04
518.39	33682.94
518.60	33912.31
518.80	33900.03
519.01	33893.88
519.21	33695.23
519.41	33926.65
519.62	34280.95
519.82	34147.83
520.03	34190.84
520.23	34418.16
520.43	33973.75
520.64	34569.71
520.84	34735.60
521.05	34438.64
521.25	34797.04
521.45	34772.46
521.66	34977.26
521.86	34565.62
522.07	35057.13
522.27	35603.94
522.47	34772.46
522.68	35233.25
522.88	35292.65
523.08	35603.94
523.29	35507.68
523.49	35341.80
523.70	35528.16
523.90	35622.37
524.10	35610.08
524.31	36056.54
524.51	36058.59
524.71	36230.62
524.92	35954.14
525.12	36470.23
525.33	36642.26
525.53	36386.26
525.73	36838.86
525.94	36535.76
526.14	36392.40
526.34	36845.01
526.55	37357.00
526.75	36953.55
526.95	37152.20
527.16	36890.06
527.36	37305.80
527.56	37088.71
527.77	37623.23
527.97	37223.88
528.17	37367.24
528.38	37961.15
528.58	37526.98
528.78	37899.71
528.99	37776.83
529.19	37981.63
529.39	37811.65
529.60	38598.07
529.80	38270.39
530.00	38366.65
530.21	38401.46
530.41	38667.70
530.61	38557.11
530.82	38811.06
531.02	38542.77
531.22	38927.79
531.43	38770.10
531.63	39101.87
531.83	39519.65
532.04	39654.82
532.24	39144.87
532.44	40158.62
532.64	39566.76
532.85	39806.37
533.05	39835.04
533.25	39556.52
533.46	39957.92
533.66	40443.29
533.86	40205.72
534.07	40961.42
534.27	40490.39
534.47	40678.80
534.67	40807.83
534.88	40660.37
535.08	40834.45
535.28	41223.56
535.49	40975.76
535.69	41733.51
535.89	41235.85
536.09	41434.50
536.30	41643.40
536.50	41330.06
536.70	41799.04
536.91	41989.50
537.11	41770.37
537.31	42091.90
537.51	41856.39
537.72	42282.36
537.92	42368.38
538.12	42999.15
538.32	42290.55
538.53	42599.80
538.73	42788.21
538.93	42638.71
539.13	42636.66
539.34	42661.24
539.54	42839.41
539.74	43316.59
539.94	42755.44
540.15	43060.59
540.35	43210.09
540.55	43398.51
540.75	43144.56
540.96	43478.38
541.16	43480.42
541.36	43824.48
541.56	43785.57
541.77	43945.31
541.97	43736.42
542.17	43976.03
542.37	43963.75
542.58	44125.53
542.78	44238.17
542.98	44490.07
543.18	44203.36
543.38	44649.81
543.59	44823.89
543.79	44803.41
543.99	44498.26
544.19	45028.69
544.40	44676.44
544.60	44819.80
544.80	44682.58
545.00	44860.76
545.20	45112.66
545.41	45282.64
545.61	45243.73
545.81	45604.17
546.01	45378.89
546.21	45663.56
546.42	45481.29
546.62	45866.31
546.82	45718.85
547.02	45587.78
547.22	45983.04
547.43	45270.35
547.63	45641.03
547.83	46116.16
548.03	45802.82
548.23	46101.82
548.44	46142.78
548.64	46222.65
548.84	45858.12
549.04	45860.16
549.24	46249.28
549.45	46460.22
549.65	46081.34
549.85	46560.57
550.05	46406.97
550.25	46550.33
550.45	46884.15
550.66	46953.78
550.86	46691.64
551.06	46976.31
551.26	46662.97
551.46	46910.77
551.66	46906.68
551.87	46951.73
552.07	46988.60
552.27	47242.54
552.47	47369.52
552.67	47514.92
552.87	47275.31
553.07	47424.81
553.28	47029.55
553.48	47484.20
553.68	47320.37
553.88	47459.63
554.08	47752.49
554.28	47435.05
554.48	47506.73
554.69	47586.60
554.89	47592.75
555.09	47985.96
555.29	47621.42
555.49	47803.69
555.69	47838.50
555.89	48018.72
556.10	48481.56
556.30	47727.91
556.50	48094.50
556.70	47619.37
556.90	48125.22
557.10	48250.14
557.30	48067.87
557.50	48500.00
557.70	48708.89
557.91	48600.35
558.11	48551.20
558.31	48323.87
558.51	48530.72
558.71	48860.44
558.91	48387.36
559.11	48319.77
559.31	48579.87
559.51	48241.95
559.72	48350.49
559.92	48981.27
560.12	48557.34
560.32	48370.97
560.52	48604.44
560.72	49110.29
560.92	49165.59
561.12	48983.32
561.32	49394.96
561.52	48825.62
561.72	48934.17
561.93	48727.32
562.13	48932.12
562.33	48878.87
562.53	49696.01
562.73	48938.26
562.93	48917.78
563.13	49325.33
563.33	49108.24
563.53	49681.67
563.73	48921.88
563.93	49415.44
564.13	49595.66
564.33	49620.23
564.53	49380.62
564.74	49886.47
564.94	49272.08
565.14	49552.65
565.34	49315.09
565.54	49681.67
565.74	49388.81
565.94	50013.44
566.14	49923.33
566.34	49577.23
566.54	50302.21
566.74	49763.59
566.94	49888.52
567.14	49978.63
567.34	49947.91
567.54	50199.81
567.74	49874.18
567.94	50121.99
568.14	50064.64
568.34	50392.32
568.54	50107.65
568.74	50038.02
568.94	50255.11
569.14	50562.30
569.34	50547.96
569.54	50674.94
569.75	50154.75
569.95	50414.85
570.15	50636.03
570.35	50509.05
570.55	50672.89
570.75	50529.53
570.95	50410.75
571.15	50953.46
571.35	50744.57
571.55	50984.18
571.75	50828.54
571.95	50392.32
572.15	50949.37
572.35	51070.20
572.55	50715.90
572.75	51094.77
572.95	50836.73
573.15	50722.04
573.35	50914.55
573.55	50971.89
573.75	50910.46
573.95	51008.76
574.15	51262.71
574.35	51412.21
574.55	51545.33
574.75	51389.68
574.95	51561.71
575.15	51283.19
575.34	50865.40
575.54	51340.53
575.74	51610.86
575.94	51635.44
576.14	51483.89
576.34	52073.70
576.54	52075.75
576.74	51696.88
576.94	51979.49
577.14	51928.30
577.34	52141.28
577.54	51610.86
577.74	52212.96
577.94	52235.49
578.14	52290.79
578.34	52276.45
578.54	51475.69
578.74	51991.78
578.94	52327.65
579.14	52008.17
579.34	52503.77
579.54	52204.77
579.74	52747.48
579.94	52286.69
580.13	52264.16
580.33	52362.46
580.53	52939.99
580.73	52626.65
580.93	52772.06
581.13	52616.41
581.33	53148.88
581.53	52837.59
581.73	53048.53
581.93	53124.31
582.13	52796.63
582.33	52884.70
582.53	53341.39
582.73	53185.75
582.92	53290.19
583.12	53265.62
583.32	53222.61
583.52	52921.56
583.72	53257.43
583.92	53263.57
584.12	53726.41
584.32	53976.26
584.52	53744.84
584.72	53550.29
584.92	53511.38
585.11	54097.09
585.31	53525.71
585.51	53730.51
585.71	53609.68
585.91	54037.70
586.11	53716.17
586.31	53566.67
586.51	53525.71
586.71	53361.87
586.91	54035.66
587.10	54080.71
587.30	54287.56
587.50	54308.04
587.70	54387.91
587.90	54310.08
588.10	54719.68
588.30	54369.47
588.50	54473.92
588.69	54465.73
588.89	54549.70
589.09	54435.01
589.29	54881.47
589.49	54729.92
589.69	54373.57
589.89	54787.26
590.08	54846.65
590.28	54742.20
590.48	54897.85
590.68	54361.28
590.88	55174.33
591.08	54607.04
591.28	54162.63
591.47	54998.20
591.67	55356.60
591.87	55104.70
592.07	55043.26
592.27	55149.75
592.47	55221.43
592.67	54897.85
592.86	54920.38
593.06	55266.48
593.26	54938.81
593.46	55506.10
593.66	55127.22
593.86	55717.04
594.05	55170.23
594.25	55647.41
594.45	55471.28
594.65	55114.94
594.85	55565.49
595.05	55561.39
595.24	55446.71
595.44	55606.45
595.64	55594.16
595.84	55469.23
596.04	55762.09
596.23	56177.83
596.43	56136.87
596.63	55981.23
596.83	55714.99
597.03	55956.65
597.22	56515.75
597.42	56431.78
597.62	56722.59
597.82	56753.31
598.02	56005.80
598.21	56730.78
598.41	55829.68
598.61	56347.81
598.81	56462.50
599.01	56550.56
599.20	56149.16
599.40	56112.30
599.60	56300.71
599.80	56464.55
600.00	57011.35
600.19	56951.96
600.39	56505.51
600.59	56499.36
600.79	56908.96
600.98	56652.96
601.18	56917.15
601.38	56761.50
601.58	56677.54
601.78	57095.32
601.97	57072.79
602.17	57693.33
602.37	57345.17
602.57	57304.21
602.76	57750.67
602.96	57052.31
603.16	57349.27
603.36	57132.18
603.55	57717.90
603.75	57758.86
603.95	57722.00
604.15	57744.53
604.34	57080.98
604.54	58039.43
604.74	57609.36
604.94	57779.34
605.13	57922.70
605.33	57611.41
605.53	57373.84
605.73	57824.40
605.92	57715.86
606.12	58066.06
606.32	58029.19
606.52	58170.50
606.71	58152.07
606.91	58287.24
607.11	57783.44
607.30	58213.51
607.50	58070.15
607.70	58139.78
607.90	57857.17
608.09	58485.89
608.29	58078.35
608.49	58322.05
608.68	58152.07
608.88	58317.96
609.08	58541.19
609.28	58182.79
609.47	58332.29
609.67	58561.67
609.87	58043.53
610.06	58524.80
610.26	58461.32
610.46	58606.72
610.66	58299.53
610.85	58295.43
611.05	58561.67
611.25	58489.99
611.44	58428.55
611.64	58586.24
611.84	58217.61
612.03	58774.66
612.23	58625.15
612.43	58664.06
612.62	58653.82
612.82	59004.03
613.02	58520.71
613.21	58737.79
613.41	58614.91
613.61	58844.29
613.80	58512.52
614.00	58860.67
614.20	58530.95
614.39	58594.43
614.59	58909.82
614.79	58686.59
614.98	58659.97
615.18	58760.32
615.38	58653.82
615.57	58231.94
615.77	58932.35
615.97	58528.90
616.16	58442.88
616.36	58973.31
616.56	58365.06
616.75	58971.26
616.95	58707.07
617.15	58207.37
617.34	58623.11
617.54	58600.58
617.74	58737.79
617.93	58385.54
618.13	58336.39
618.32	58494.08
618.52	58606.72
618.72	58799.23
618.91	58512.52
619.11	58283.14
619.31	58559.62
619.50	58334.34
619.70	58262.66
619.90	58713.22
620.09	57969.80
620.29	58029.19
620.48	57975.95
620.68	58633.35
620.88	58131.59
621.07	57980.04
621.27	58459.27
621.46	57898.12
621.66	58287.24
621.86	58463.36
622.05	58119.31
622.25	58100.87
622.44	57914.51
622.64	57896.08
622.84	58176.65
623.03	57646.22
623.23	58242.18
623.42	58283.14
623.62	58535.04
623.82	58459.27
624.01	57627.79
624.21	58510.47
624.40	57701.52
624.60	57832.59
624.80	57924.75
624.99	57988.24
625.19	57490.58
625.38	58184.84
625.58	58403.97
625.77	57785.49
625.97	58315.91
626.17	57765.01
626.36	57810.06
626.56	58209.42
626.75	57523.35
626.95	58113.16
627.14	57980.04
627.34	58152.07
627.54	57666.70
627.73	57455.76
627.93	58242.18
628.12	57627.79
628.32	57945.23
628.51	58088.59
628.71	58008.71
628.90	57642.13
629.10	57320.60
629.30	57767.05
629.49	57783.44
629.69	57595.03
629.88	57810.06
630.08	57955.47
630.27	57523.35
630.47	57830.54
630.66	57734.29
630.86	57664.66
631.05	57367.70
631.25	58188.94
631.44	57482.39
631.64	57812.11
631.84	57490.58
632.03	57918.60
632.23	57760.91
632.42	57760.91
632.62	57638.03
632.81	57142.42
633.01	57666.70
633.20	58006.67
633.40	57728.14
633.59	57791.63
633.79	57410.71
633.98	57443.48
634.18	57619.60
634.37	57861.26
634.57	57830.54
634.76	57988.24
634.96	57683.09
635.15	57920.65
635.35	57437.33
635.54	57453.72
635.74	57756.81
635.93	57220.25
636.13	57586.83
636.32	57709.71
636.52	57017.50
636.71	57713.81
636.91	57578.64
637.10	57742.48
637.30	57848.97
637.49	57435.28
637.69	57257.11
637.88	57674.90
638.08	57697.42
638.27	57480.34
638.46	57801.87
638.66	57316.50
638.85	57978.00
639.05	57934.99
639.24	57531.54
639.44	57373.84
639.63	57527.44
639.83	57574.55
640.02	57291.93
640.22	57478.29
640.41	57691.28
640.61	57214.10
640.80	57404.56
640.99	57330.84
641.19	58084.49
641.38	57302.17
641.58	57527.44
641.77	57455.76
641.97	57113.75
642.16	57377.94
642.36	57859.21
642.55	57775.25
642.74	57300.12
642.94	57443.48
643.13	57250.97
643.33	57476.24
643.52	57719.95
643.72	57574.55
643.91	57752.72
644.10	57365.65
644.30	57797.77
644.49	57500.82
644.69	57306.26
644.88	57654.42
645.08	57236.63
645.27	57375.89
645.46	57439.38
645.66	58100.87
645.85	57545.87
646.05	57752.72
646.24	57287.83
646.43	57447.57
646.63	57949.32
646.82	58113.16
647.02	57453.72
647.21	57828.49
647.40	57316.50
647.60	57795.73
647.79	57816.21
647.99	58104.97
648.18	57816.21
648.37	58307.72
648.57	57875.60
648.76	57687.18
648.96	57760.91
649.15	57971.85
649.34	57865.36
649.54	57838.73
649.73	57468.05
649.92	57767.05
650.12	57595.03
650.31	57920.65
650.51	57765.01
650.70	57867.40
650.89	57810.06
651.09	58322.05
651.28	57808.01
651.47	58021.00
651.67	57658.51
651.86	57932.94
652.06	57291.93
652.25	57883.79
652.44	57527.44
652.64	57664.66
652.83	57494.67
653.02	57678.99
653.22	57521.30
653.41	57496.72
653.60	57394.32
653.80	57691.28
653.99	57756.81
654.18	57564.31
654.38	57347.22
654.57	57670.80
654.76	57541.78
654.96	58055.82
655.15	57332.89
655.34	57574.55
655.54	57046.17
655.73	57416.85
655.92	57597.07
656.12	57511.06
656.31	57592.98
656.50	57707.66
656.70	57756.81
656.89	57261.21
657.08	57506.96
657.28	57635.98
657.47	57717.90
657.66	57353.36
657.86	57549.97
658.05	57816.21
658.24	57785.49
658.43	57480.34
658.63	57689.23
658.82	57724.05
659.01	57642.13
659.21	57740.43
659.40	57685.14
659.59	57537.68
659.79	57836.69
659.98	57390.23
660.17	57724.05
660.36	57439.38
660.56	57455.76
660.75	57371.80
660.94	57541.78
661.14	57341.08
661.33	57656.46
661.52	57011.35
661.71	57803.92
661.91	57123.99
662.10	56849.56
662.29	57855.12
662.49	57423.00
662.68	57558.16
662.87	57652.37
663.06	57461.91
663.26	57416.85
663.45	57588.88
663.64	57439.38
663.83	57443.48
664.03	57695.38
664.22	57265.30
664.41	57179.29
664.60	57201.82
664.80	57173.14
664.99	57197.72
665.18	57486.48
665.37	57351.32
665.57	57414.80
665.76	56865.95
665.95	56968.35
666.14	57031.83
666.34	57590.93
666.53	56550.56
666.72	57406.61
666.91	56765.60
667.11	56800.41
667.30	57197.72
667.49	56728.73
667.68	57095.32
667.87	56847.52
668.07	56954.01
668.26	57085.08
668.45	57191.58
668.64	56880.28
668.84	57564.31
669.03	57029.79
669.22	56853.66
669.41	57162.90
669.60	57160.86
669.80	56632.48
669.99	56994.97
670.18	56800.41
670.37	57275.54
670.57	57320.60
670.76	56669.34
670.95	57361.56
671.14	56695.97
671.33	56269.99
671.53	57054.36
671.72	56865.95
671.91	56767.65
672.10	56378.53
672.29	56704.16
672.48	56530.08
672.68	56853.66
672.87	56650.91
673.06	56306.85
673.25	56417.44
673.44	56292.52
673.64	56521.89
673.83	55874.73
674.02	56566.94
674.21	55864.49
674.40	56638.62
674.59	55909.55
674.79	56399.01
674.98	56108.20
675.17	56538.27
675.36	56396.96
675.55	55950.51
675.74	56100.01
675.94	56097.96
676.13	56202.41
676.32	56028.33
676.51	56437.92
676.70	56183.97
676.89	55901.36
677.08	56566.94
677.28	55940.27
677.47	56378.53
677.66	56358.05
677.85	55887.02
678.04	56251.56
678.23	56253.61
678.42	55940.27
678.62	55809.20
678.81	55981.23
679.00	56071.34
679.19	56231.08
679.38	56005.80
679.57	55370.93
679.76	55557.30
679.96	55884.97
680.15	55604.40
680.34	55712.94
680.53	55676.08
680.72	55850.16
680.91	55461.04
681.10	55569.58
681.29	55946.41
681.48	55811.24
681.68	55571.63
681.87	55393.46
682.06	55803.05
682.25	55168.18
682.44	55727.28
682.63	55610.54
682.82	55215.29
683.01	55270.58
683.20	55071.93
683.39	55354.55
683.59	54922.43
683.78	54711.49
683.97	54662.33
684.16	54998.20
684.35	55182.52
684.54	54973.63
684.73	54863.03
684.92	55008.44
685.11	55121.08
685.30	54858.94
685.49	55022.78
685.69	54719.68
685.88	54955.19
686.07	54789.31
686.26	54543.55
686.45	54772.92
686.64	54926.52
686.83	55016.63
687.02	55012.54
687.21	54727.87
687.40	54447.30
687.59	54848.70
687.78	54551.74
687.97	54942.91
688.16	54287.56
688.35	54402.24
688.54	54396.10
688.74	54559.94
688.93	54021.32
689.12	54291.65
689.31	54287.56
689.50	54324.42
689.69	54049.99
689.88	53679.31
690.07	54361.28
690.26	53943.50
690.45	54369.47
690.64	53916.87
690.83	54127.81
691.02	54107.33
691.21	54097.09
691.40	53705.93
691.59	53990.60
691.78	53914.83
691.97	53884.11
692.16	53849.29
692.35	53951.69
692.54	53773.52
692.73	53775.56
692.92	53601.49
693.11	53308.63
693.30	53519.57
693.49	53574.86
693.68	52997.34
693.87	53443.79
694.06	53271.76
694.25	53181.65
694.44	52972.76
694.63	53458.13
694.82	53241.04
695.01	53109.97
695.20	52958.42
695.39	53271.76
695.58	53001.43
695.77	52858.07
695.96	52813.02
696.15	53312.72
696.34	52659.42
696.53	52997.34
696.72	53259.48
696.91	52763.87
697.10	52823.26
697.29	52356.32
697.48	52679.90
697.67	52399.33
697.86	52024.55
698.05	52608.22
698.24	52778.20
698.43	52028.65
698.62	52569.31
698.81	52298.98
699.00	52786.39
699.19	52085.99
699.38	52491.49
699.57	51780.84
699.76	52755.68
699.95	52143.33
700.14	51815.66
700.32	51717.35
700.51	51766.51
700.70	52309.22
700.89	51881.19
701.08	51846.38
701.27	51797.23
701.46	51664.11
701.65	51537.13
701.84	51512.56
702.03	51836.14
702.22	51672.30
702.41	51627.24
702.60	51913.96
702.79	51709.16
702.98	51430.64
703.17	51426.54
703.35	51373.30
703.54	51717.35
703.73	51639.53
703.92	51528.94
704.11	51246.32
704.30	50844.92
704.49	51356.91
704.68	50838.78
704.87	51254.51
705.06	50619.64
705.25	50978.04
705.43	50949.37
705.62	51244.27
705.81	50892.02
706.00	50967.80
706.19	51285.23
706.38	50846.97
706.57	50955.51
706.76	50998.52
706.95	50971.89
707.14	50799.86
707.32	50603.26
707.51	50517.25
707.70	50349.31
707.89	50478.33
708.08	49949.96
708.27	50711.80
708.46	50799.86
708.65	50398.46
708.84	50476.29
709.02	50763.00
709.21	50171.14
709.40	50539.77
709.59	50353.41
709.78	49966.34
709.97	50431.23
710.16	49837.32
710.34	49771.78
710.53	49583.37
710.72	49648.91
710.91	49669.39
711.10	50044.16
711.29	50148.61
711.48	49931.53
711.66	49743.11
711.85	49464.59
712.04	49702.15
712.23	49552.65
712.42	49587.47
712.61	49501.45
712.80	49624.33
712.98	49306.90
713.17	49423.63
713.36	49055.00
713.55	48770.33
713.74	49526.03
713.93	49286.42
714.11	49354.00
714.30	48778.52
714.49	49077.52
714.68	49153.30
714.87	49462.54
715.06	49155.35
715.24	48864.53
715.43	49034.52
715.62	48669.98
715.81	48583.96
716.00	49009.94
716.18	48569.63
716.37	48268.58
716.56	48571.67
716.75	48721.18
716.94	48315.68
717.12	48071.97
717.31	48850.20
717.50	48669.98
717.69	47920.42
717.88	48106.79
718.06	48303.39
718.25	48528.67
718.44	47891.75
718.63	48192.80
718.82	47578.41
719.00	47985.96
719.19	47482.16
719.38	48002.34
719.57	47185.20
719.76	47410.48
719.94	47306.03
720.13	47490.35
720.32	47705.38
720.51	47277.36
720.69	47430.96
720.88	47088.95
721.07	47267.12
721.26	46638.39
721.44	46849.33
721.63	47228.21
721.82	46949.68
722.01	46599.48
722.20	47039.79
722.38	46449.98
722.57	46671.16
722.76	46921.01
722.95	46654.78
723.13	46511.42
723.32	46247.23
723.51	45997.38
723.70	45770.05
723.88	46103.87
724.07	46101.82
724.26	46247.23
724.44	45585.74
724.63	46511.42
724.82	46116.16
725.01	46202.18
725.19	46329.15
725.38	45870.40
725.57	45927.75
725.76	45886.79
725.94	45419.85
726.13	45755.72
726.32	45856.07
726.51	45694.28
726.69	45821.25
726.88	45774.15
727.07	45667.66
727.25	45507.91
727.44	45665.61
727.63	45288.78
727.82	45446.47
728.00	45219.15
728.19	45329.74
728.38	45784.39
728.56	45100.37
728.75	45219.15
728.94	45460.81
729.12	45456.71
729.31	45391.18
729.50	45342.03
729.69	45143.38
729.87	45239.63
730.06	45118.80
730.25	45167.95
730.43	45634.89
730.62	45161.81
730.81	45075.79
730.99	45417.80
731.18	45061.46
731.37	45020.50
731.55	45225.29
731.74	45192.53
731.93	45247.82
732.11	45221.20
732.30	45231.44
732.49	45081.94
732.67	45180.24
732.86	44897.62
733.05	45079.89
733.23	44555.61
733.42	44703.06
733.61	44701.01
733.79	44518.74
733.98	45030.74
734.17	44391.77
734.35	44723.54
734.54	44961.11
734.73	44989.78
734.91	44473.69
735.10	44346.72
735.29	44520.79
735.47	44305.76
735.66	44541.27
735.84	44576.09
736.03	44520.79
736.22	44635.48
736.40	44506.46
736.59	44811.60
736.78	44782.93
736.96	44590.42
737.15	44545.37
737.33	44275.04
737.52	44520.79
737.71	44109.15
737.89	43814.24
738.08	44111.20
738.27	43822.44
738.45	44189.02
738.64	44490.07
738.82	43734.37
739.01	44250.46
739.20	44115.29
739.38	44045.66
739.57	43980.13
739.75	43982.18
739.94	43920.74
740.13	44027.23
740.31	44049.76
740.50	43732.32
740.68	43947.36
740.87	43896.16
741.06	43933.03
741.24	43459.94
741.43	43410.79
741.61	43787.62
741.80	43150.70
741.99	43382.12
742.17	42870.13
742.36	43128.17
742.54	43191.66
742.73	43029.87
742.91	43494.76
743.10	43191.66
743.29	43486.57
743.47	43074.93
743.66	43425.13
743.84	43597.16
744.03	43079.02
744.21	43005.30
744.40	43380.07
744.59	43005.30
744.77	42775.92
744.96	43093.36
745.14	42800.50
745.33	43081.07
745.51	42591.61
745.70	42616.18
745.88	42761.59
746.07	42980.72
746.26	42308.99
746.44	42646.90
746.63	42607.99
746.81	42648.95
747.00	42151.29
747.18	42775.92
747.37	42521.98
747.55	42063.23
747.74	42403.19
747.92	42100.09
748.11	42276.22
748.29	42329.47
748.48	42403.19
748.66	41975.17
748.85	42081.66
749.03	42216.83
749.22	42268.03
749.41	41983.36
749.59	42292.60
749.78	41608.58
749.96	41690.50
750.15	41694.60
750.33	41661.83
750.52	41799.04
750.70	42163.58
750.89	41915.78
751.07	41653.64
751.26	41794.95
751.44	41399.69
751.63	41504.13
751.81	41098.64
752.00	41102.73
752.18	41541.00
752.37	41358.73
752.55	41022.86
752.74	41436.55
752.92	41151.88
753.10	40963.47
753.29	41074.06
753.47	40861.07
753.66	40637.84
753.84	41133.45
754.03	41041.29
754.21	40934.80
754.40	41528.71
754.58	41106.83
754.77	40842.64
754.95	40934.80
755.14	40547.73
755.32	40811.92
755.51	40480.15
755.69	40508.82
755.88	40510.87
756.06	40457.62
756.24	40719.76
756.43	40535.45
756.61	40361.37
756.80	40379.80
756.98	39714.21
757.17	40109.47
757.35	40449.43
757.54	40002.97
757.72	40326.55
757.90	40005.02
758.09	39802.27
758.27	39988.64
758.46	40043.93
758.64	39919.01
758.83	39820.70
759.01	40011.17
759.19	39978.40
759.38	39931.29
759.56	39474.60
759.75	39685.54
759.93	39755.17
760.12	39566.76
760.30	39683.49
760.48	39507.37
760.67	39736.74
760.85	39654.82
761.04	39527.84
761.22	39695.78
761.40	39572.90
761.59	39587.24
761.77	39210.41
761.96	39130.54
762.14	39314.86
762.32	38954.41
762.51	38661.55
762.69	39204.27
762.88	39128.49
763.06	39271.85
763.24	38985.13
763.43	39185.83
763.61	39046.57
763.80	38876.59
763.98	38530.48
764.16	39003.56
764.35	38634.93
764.53	38405.56
764.72	38532.53
764.90	38665.65
765.08	38596.02
765.27	38782.38
765.45	38311.35
765.63	38208.95
765.82	38204.86
766.00	38309.30
766.18	38229.43
766.37	38014.40
766.55	38163.90
766.74	38419.89
766.92	38049.21
767.10	38002.11
767.29	37821.89
767.47	37744.06
767.65	37705.15
767.84	37256.65
768.02	37840.32
768.20	37477.83
768.39	37549.51
768.57	37307.85
768.75	37328.33
768.94	38004.16
769.12	38002.11
769.30	37164.49
769.49	37330.37
769.67	37277.13
769.85	36971.98
770.04	37244.36
770.22	37293.51
770.40	37047.75
770.59	37199.30
770.77	37295.56
770.95	36849.10
771.14	36500.95
771.32	36890.06
771.50	36670.93
771.69	36847.05
771.87	37027.28
772.05	36873.68
772.24	35999.19
772.42	36470.23
772.60	36718.03
772.78	36406.74
772.97	36230.62
773.15	36640.21
773.33	36503.00
773.52	36220.38
773.70	36152.79
773.88	36437.46
774.07	36675.02
774.25	36562.39
774.43	36814.29
774.61	36281.81
774.80	36070.87
774.98	36351.45
775.16	36369.88
775.34	36419.03
775.53	35872.22
775.71	36906.44
775.89	36081.11
776.08	35999.19
776.26	36287.96
776.44	36609.49
776.62	36400.60
776.81	36535.76
776.99	36349.40
777.17	36711.89
777.35	36498.90
777.54	36619.73
777.72	36099.55
777.90	36589.01
778.08	36290.01
778.27	36378.07
778.45	36720.08
778.63	36883.92
778.81	36150.74
779.00	37012.94
779.18	36715.98
779.36	37182.92
779.54	36380.12
779.73	36404.69
779.91	37000.65
780.09	36619.73
780.27	37172.68
780.46	36808.14
780.64	36931.02
780.82	36793.81
781.00	36945.36
781.19	36789.71
781.37	36804.05
781.55	36802.00
781.73	37062.09
781.91	37006.80
782.10	37254.60
782.28	36627.92
782.46	37084.62
782.64	37291.46
782.82	36742.61
783.01	37006.80
783.19	36992.46
783.37	36812.24
783.55	36883.92
783.74	36941.26
783.92	36582.87
784.10	37127.63
784.28	36832.72
784.46	36644.30
784.64	36562.39
784.83	36574.67
785.01	36816.33
785.19	36558.29
785.37	36355.54
785.55	36591.06
785.74	36376.02
785.92	36548.05
786.10	36576.72
786.28	36771.28
786.46	36296.15
786.64	36101.59
786.83	36115.93
787.01	36277.72
787.19	36662.74
787.37	36505.04
787.55	36232.66
787.74	36163.03
787.92	36541.91
788.10	36298.20
788.28	35800.54
788.46	36050.39
788.64	35831.26
788.82	36001.24
789.01	35904.99
789.19	36044.25
789.37	35831.26
789.55	35884.51
789.73	35786.21
789.91	35534.31
790.09	35874.27
790.28	35784.16
790.46	35329.51
790.64	35653.09
790.82	35558.88
791.00	35519.97
791.18	35448.29
791.36	35347.94
791.55	35231.21
791.73	35128.81
791.91	34903.53
792.09	35173.86
792.27	35268.07
792.45	34958.83
792.63	34745.84
792.81	34575.86
793.00	34313.72
793.18	34303.48
793.36	34504.18
793.54	34444.79
793.72	34188.79
793.90	34231.80
794.08	34008.57
794.26	34452.98
794.44	33777.15
794.62	33861.12
794.81	34000.38
794.99	33889.79
795.17	33850.88
795.35	33814.01
795.53	33859.07
795.71	33607.17
795.89	33455.62
796.07	33050.12
796.25	33160.71
796.43	33428.99
796.61	33547.78
796.80	32863.75
796.98	33011.21
797.16	32927.24
797.34	32939.53
797.52	32740.88
797.70	32835.08
797.88	32589.33
798.06	32290.32
798.24	32579.09
798.42	32439.82
798.60	32230.93
798.78	32525.84
798.96	32515.60
799.14	31915.54
799.32	32101.91
799.51	31876.63
799.69	32198.16
799.87	32204.31
800.05	31772.19
800.23	31825.43
800.41	31497.76
800.59	31755.80
800.77	31626.78
800.95	31348.26
801.13	31229.48
801.31	31157.80
801.49	31335.97
801.67	31088.17
801.85	31338.02
802.03	31028.77
802.21	31020.58
802.39	31020.58
802.57	30955.05
802.75	30563.89
802.93	30846.51
803.11	30746.15
803.29	30350.90
803.47	30541.36
803.65	30361.14
803.83	30266.93
804.01	29818.42
804.19	30023.22
804.37	30105.14
804.55	30189.11
804.73	29898.30
804.91	29750.84
805.09	29851.19
805.27	29746.75
805.45	29646.40
805.63	29822.52
805.81	29640.25
805.99	29677.12
806.17	29548.09
806.35	29668.92
806.53	29441.60
806.71	29054.53
806.89	29294.14
807.07	29118.02
807.25	29374.02
807.43	28966.47
807.61	29279.81
807.79	29132.36
807.97	28845.64
808.15	29048.39
808.33	28411.47
808.51	28649.03
808.69	28370.51
808.87	28307.02
809.05	28403.28
809.23	28565.07
809.41	28255.82
809.59	28618.32
809.77	28356.18
809.95	28427.85
810.13	28126.80
810.31	28032.60
810.49	28223.06
810.67	27788.89
810.84	28063.32
811.02	27842.14
811.20	27842.14
811.38	27954.77
811.56	27770.46
811.74	28192.34
811.92	27475.55
812.10	27442.78
812.28	27731.54
812.46	27545.18
812.64	27666.01
812.82	27539.04
813.00	27160.16
813.18	27252.32
813.36	26816.10
813.53	26932.84
813.71	27252.32
813.89	27137.63
814.07	26957.41
814.25	26807.91
814.43	26797.67
814.61	26502.76
814.79	26766.95
814.97	26488.43
815.15	26828.39
815.33	26463.85
815.50	26484.33
815.68	26336.88
815.86	26678.89
816.04	26400.37
816.22	26265.20
816.40	26484.33
816.58	26150.51
816.76	26142.32
816.94	26072.69
817.11	25865.85
817.29	26078.83
817.47	26150.51
817.65	26175.09
817.83	25874.04
818.01	25695.86
818.19	25804.41
818.37	25808.50
818.54	25499.26
818.72	25388.67
818.90	25405.05
819.08	25417.34
819.26	25581.18
819.44	25196.16
819.62	25048.71
819.80	25644.66
819.97	25333.37
820.15	25218.69
820.33	25282.17
820.51	25478.78
820.69	25259.65
820.87	25239.17
821.05	25249.41
821.22	25112.19
821.40	25095.81
821.58	25034.37
821.76	24917.64
821.94	25024.13
822.12	24860.29
822.29	24903.30
822.47	24940.16
822.65	24845.96
822.83	24499.85
823.01	24526.47
823.19	24198.80
823.36	24522.38
823.54	24551.05
823.72	24493.71
823.90	24370.83
824.08	24790.66
824.25	24438.41
824.43	24319.63
824.61	24323.72
824.79	24155.79
824.97	24010.39
825.15	24114.83
825.32	24069.78
825.50	23885.46
825.68	23895.70
825.86	24231.57
826.04	24067.73
826.21	23871.12
826.39	23678.61
826.57	23910.04
826.75	23750.29
826.93	23492.25
827.10	23547.54
827.28	23678.61
827.46	23994.00
827.64	23824.02
827.81	23449.24
827.99	23774.87
828.17	23713.43
828.35	23410.33
828.53	23346.84
828.70	23359.13
828.88	23367.32
829.06	23557.78
829.24	23422.62
829.41	23275.16
829.59	23617.18
829.77	23240.35
829.95	23205.53
830.12	23131.81
830.30	23332.51
830.48	23205.53
830.66	22961.83
830.84	22912.67
831.01	23277.21
831.19	22935.20
831.37	22675.11
831.55	22834.85
831.72	22847.14
831.90	22668.97
832.08	22992.55
832.25	22699.69
832.43	22769.32
832.61	22492.84
832.79	22539.94
832.96	22329.00
833.14	22355.63
833.32	22744.74
833.50	22548.14
833.67	22443.69
833.85	22527.66
834.03	22107.82
834.20	22529.70
834.38	22292.14
834.56	22527.66
834.74	21980.85
834.91	22490.79
835.09	22025.90
835.27	22083.25
835.44	21866.16
835.62	22081.20
835.80	22075.06
835.98	22277.80
836.15	22146.73
836.33	21774.00
836.51	22036.14
836.68	21683.89
836.86	21692.08
837.04	21925.55
837.21	21792.44
837.39	22015.66
837.57	21790.39
837.75	21876.40
837.92	21751.48
838.10	21720.76
838.28	21325.50
838.45	21642.93
838.63	21229.24
838.81	21749.43
838.98	21501.62
839.16	21413.56
839.34	21145.28
839.51	21124.80
839.69	21223.10
839.87	20997.82
840.04	21370.55
840.22	21214.91
840.40	21376.70
840.57	20967.10
840.75	21288.64
840.93	21221.05
841.10	20995.78
841.28	21034.69
841.46	20870.85
841.63	21206.72
841.81	21079.74
841.98	20944.58
842.16	20649.67
842.34	21104.32
842.51	20833.99
842.69	20852.42
842.87	20627.14
843.04	20745.92
843.22	20672.20
843.40	20911.81
843.57	20768.45
843.75	20809.41
843.92	20965.06
844.10	20678.34
844.28	20829.89
844.45	20717.25
844.63	20614.85
844.81	20557.51
844.98	20356.81
845.16	20373.19
845.33	20444.87
845.51	20483.78
845.69	20184.78
845.86	20328.14
846.04	20139.72
846.21	20344.52
846.39	20178.64
846.57	20278.99
846.74	19988.18
846.92	20213.45
847.09	20125.39
847.27	20154.06
847.45	20274.89
847.62	20133.58
847.80	19932.88
847.97	19961.55
848.15	19928.78
848.32	19871.44
848.50	19789.52
848.68	19859.15
848.85	19607.25
849.03	19488.47
849.20	19795.67
849.38	19433.18
849.56	19576.53
849.73	19566.29
849.91	19699.41
850.08	19834.58
850.26	19414.74
850.43	19558.10
850.61	19431.13
850.78	19175.13
850.96	19648.21
851.14	19494.61
851.31	19560.15
851.49	19218.14
851.66	19601.11
851.84	19457.75
852.01	19349.21
852.19	19367.64
852.36	19349.21
852.54	19336.92
852.71	19359.45
852.89	19324.63
853.07	19283.67
853.24	19211.99
853.42	19199.71
853.59	18896.61
853.77	18986.72
853.94	18947.81
854.12	19164.89
854.29	18931.42
854.47	18788.07
854.64	18966.24
854.82	19005.15
854.99	19076.83
855.17	18849.50
855.34	18829.02
855.52	18530.02
855.69	19046.11
855.87	18720.48
856.04	18616.04
856.22	18702.05
856.39	18339.56
856.57	18673.38
856.74	18482.92
856.92	18613.99
857.09	18401.00
857.27	18353.90
857.44	18523.88
857.62	18382.57
857.79	18564.84
857.97	18355.94
858.14	18167.53
858.32	18274.03
858.49	18353.90
858.67	18372.33
858.84	18208.49
859.02	18138.86
859.19	18108.14
859.37	17946.35
859.54	18087.66
859.72	18169.58
859.89	18243.31
860.06	17985.26
860.24	18009.84
860.41	18145.00
860.59	17938.16
860.76	17958.64
860.94	17995.50
861.11	17807.09
861.29	18009.84
861.46	17802.99
861.64	17641.20
861.81	17635.06
861.98	17874.67
862.16	17442.55
862.33	17776.37
862.51	17434.36
862.68	17663.73
862.86	17592.05
863.03	17389.30
863.21	17747.70
863.38	17483.51
863.55	17385.21
863.73	17495.80
863.90	17553.14
864.08	17301.24
864.25	17434.36
864.43	17110.78
864.60	17155.83
864.77	17075.96
864.95	17016.57
865.12	17073.92
865.30	17131.26
865.47	17094.40
865.64	16989.95
865.82	17207.03
865.99	17080.06
866.17	16815.87
866.34	17041.15
866.51	16873.21
866.69	16862.97
866.86	16908.03
867.04	16676.61
867.21	16803.58
867.38	17028.86
867.56	16498.44
867.73	16459.52
867.91	16502.53
868.08	16658.18
868.25	16713.47
868.43	16695.04
868.60	16631.55
868.78	16658.18
868.95	16561.92
869.12	16408.33
869.30	16580.36
869.47	16609.03
869.64	16324.36
869.82	16256.78
869.99	16445.19
870.16	16338.69
870.34	16164.62
870.51	16506.63
870.69	16058.12
870.86	16209.67
871.03	16181.00
871.21	15886.09
871.38	16224.01
871.55	15699.73
871.73	15920.91
871.90	15787.79
872.07	15849.23
872.25	15601.43
872.42	15906.57
872.59	15918.86
872.77	15877.90
872.94	15838.99
873.11	15925.00
873.29	15728.40
873.46	15683.34
873.63	15582.99
873.81	15677.20
873.98	15548.18
874.15	15728.40
874.33	15277.85
874.50	15480.60
874.67	15410.96
874.85	15204.12
875.02	15218.46
875.19	15134.49
875.37	15054.62
875.54	15095.58
875.71	15245.08
875.88	14997.28
876.06	15038.23
876.23	15021.85
876.40	14821.15
876.58	15032.09
876.75	14858.01
876.92	15013.66
877.10	14788.38
877.27	14829.34
877.44	14516.00
877.61	14706.46
877.79	14507.81
877.96	14858.01
878.13	14591.78
878.31	14599.97
878.48	14688.03
878.65	14743.33
878.82	14415.65
879.00	14432.04
879.17	14438.18
879.34	14272.29
879.51	14319.40
879.69	14333.73
879.86	14040.87
880.03	14235.43
880.21	14227.24
880.38	14452.52
880.55	14462.76
880.72	14122.79
880.90	14485.28
881.07	14438.18
881.24	13956.91
881.41	14288.68
881.59	14235.43
881.76	14323.49
881.93	13907.76
882.10	14229.29
882.28	13807.41
882.45	14173.99
882.62	14153.51
882.79	14083.88
882.96	13856.56
883.14	13911.85
883.31	14300.97
883.48	14108.46
883.65	14157.61
883.83	14122.79
884.00	14001.96
884.17	13698.86
884.34	13856.56
884.51	14008.11
884.69	13918.00
884.86	13791.02
885.03	13772.59
885.20	13801.26
885.38	13782.83
885.55	13758.25
885.72	13788.97
885.89	13457.20
886.06	13727.53
886.24	13721.39
886.41	13721.39
886.58	13631.28
886.75	13481.78
886.92	13408.05
887.10	13764.40
887.27	13289.27
887.44	13313.84
887.61	13758.25
887.78	13547.31
887.95	13696.82
888.13	13446.96
888.30	13489.97
888.47	13356.85
888.64	13399.86
888.81	13438.77
888.99	13530.93
889.16	13322.04
889.33	13170.49
889.50	13227.83
889.67	13338.42
889.84	13203.25
890.01	13262.65
890.19	13156.15
890.36	13143.86
890.53	13070.14
890.70	12967.74
890.87	13109.05
891.04	13135.67
891.22	12953.40
891.39	12908.35
891.56	12891.96
891.73	13016.89
891.90	12994.36
892.07	12840.76
892.24	12951.35
892.42	12777.28
892.59	12820.28
892.76	12797.76
892.93	12754.75
893.10	12918.59
893.27	12635.97
893.44	12760.89
893.61	12654.40
893.79	12949.31
893.96	12742.46
894.13	12705.60
894.30	12719.93
894.47	12683.07
894.64	12818.24
894.81	12676.93
894.98	12496.71
895.15	12865.34
895.33	12744.51
895.50	12652.35
895.67	12752.70
895.84	12666.69
896.01	12431.17
896.18	12578.62
896.35	12455.75
896.52	12402.50
896.69	12517.18
896.86	12580.67
897.04	12357.44
897.21	12533.57
897.38	12603.20
897.55	12513.09
897.72	12650.30
897.89	12463.94
898.06	12500.80
898.23	12484.42
898.40	12609.34
898.57	12199.75
898.74	12371.78
898.91	12425.03
899.08	12576.58
899.26	12552.00
899.43	12552.00
899.60	12490.56
899.77	12502.85
899.94	12484.42
900.11	12375.88
900.28	12363.59
900.45	12369.73
900.62	12324.68
900.79	12451.65
900.96	12508.99
901.13	12232.52
901.30	12287.81
901.47	12236.61
901.64	12349.25
901.81	12377.92
901.98	12078.92
902.15	12461.89
902.32	12265.28
902.49	12324.68
902.66	12326.72
902.83	12351.30
903.01	12279.62
903.18	12377.92
903.35	12255.04
903.52	12404.55
903.69	12236.61
903.86	12164.93
904.03	12242.76
904.20	12314.44
904.37	12189.51
904.54	12379.97
904.71	12222.28
904.88	12205.89
905.05	12087.11
905.22	12310.34
905.39	12300.10
905.56	12115.78
905.73	12279.62
905.90	12312.39
906.07	12209.99
906.24	12189.51
906.41	12279.62
906.58	12390.21
906.75	12203.85
906.92	12201.80
907.09	12103.50
907.26	12121.93
907.43	12185.41
907.60	12109.64
907.77	12394.31
907.93	12336.96
908.10	12169.03
908.27	11982.67
908.44	12066.63
908.61	12015.43
908.78	12158.79
908.95	12259.14
909.12	12328.77
909.29	12076.87
909.46	12015.43
909.63	11941.71
909.80	12152.65
909.97	11966.28
910.14	11956.04
910.31	12162.89
910.48	11745.10
910.65	11937.61
910.82	11792.20
910.99	12001.10
911.16	11872.07
911.33	11693.90
911.50	11755.34
911.66	11915.08
911.83	11984.71
912.00	11798.35
912.17	11849.55
912.34	11818.83
912.51	11587.41
912.68	11587.41
912.85	11767.63
913.02	11706.19
913.19	11536.21
913.36	11773.77
913.53	11761.48
913.70	11489.10
913.86	11605.84
914.03	11282.26
914.20	11593.55
914.37	11601.74
914.54	11423.57
914.71	11611.98
914.88	11638.61
915.05	11472.72
915.22	11468.62
915.39	11505.49
915.55	11474.77
915.72	11104.09
915.89	11263.83
916.06	11194.20
916.23	11048.79
916.40	11089.75
916.57	10913.63
916.74	11341.65
916.91	11147.09
917.07	11093.85
917.24	11040.60
917.41	11044.70
917.58	10993.50
917.75	10946.39
917.92	10923.87
918.09	11030.36
918.26	11063.13
918.42	10995.54
918.59	10704.73
918.76	10827.61
918.93	10784.60
919.10	10747.74
919.27	10622.81
919.44	10821.47
919.60	10671.97
919.77	10622.81
919.94	10637.15
920.11	10434.40
920.28	10622.81
920.45	10485.60
920.61	10305.38
920.78	10409.83
920.95	10461.02
921.12	10282.85
921.29	10276.71
921.46	10258.28
921.62	10229.60
921.79	10338.15
921.96	10233.70
922.13	10041.19
922.30	10254.18
922.47	9985.90
922.63	10076.01
922.80	10045.29
922.97	9979.75
923.14	9826.15
923.31	10057.57
923.47	9891.69
923.64	9977.70
923.81	9547.63
923.98	9772.91
924.15	9647.98
924.32	9715.56
924.48	9680.75
924.65	9578.35
924.82	9467.76
924.99	9547.63
925.15	9482.10
925.32	9676.65
925.49	9518.96
925.66	9512.81
925.83	9265.01
925.99	9430.90
926.16	9199.48
926.33	9361.27
926.50	9054.07
926.67	9318.26
926.83	9265.01
927.00	9064.31
927.17	9105.27
927.34	8888.18
927.50	9019.25
927.67	9166.71
927.84	9045.88
928.01	8916.86
928.17	8882.04
928.34	8886.14
928.51	8951.67
928.68	8679.29
928.84	8617.85
929.01	8529.79
929.18	8667.00
929.35	8818.55
929.51	8693.63
929.68	8624.00
929.85	8451.97
930.02	8482.69
930.18	8324.99
930.35	8382.34
930.52	8290.18
930.69	8497.02
930.85	8490.88
931.02	8363.90
931.19	8155.01
931.36	8230.79
931.52	8292.23
931.69	8210.31
931.86	7991.17
932.02	8071.04
932.19	7950.21
932.36	7862.15
932.53	8064.90
932.69	7804.81
932.86	8048.52
933.03	7937.93
933.19	7675.79
933.36	7624.59
933.53	7813.00
933.70	7630.73
933.86	7620.49
934.03	7688.07
934.20	7417.74
934.36	7565.20
934.53	7470.99
934.70	7430.03
934.86	7337.87
935.03	7378.83
935.20	7354.26
935.36	7051.16
935.53	7028.63
935.70	7305.10
935.86	7112.60
936.03	7128.98
936.20	6813.59
936.36	6936.47
936.53	6827.93
936.70	6891.41
936.86	6842.26
937.03	6705.05
937.20	6588.32
937.36	6641.56
937.53	6498.20
937.70	6399.90
937.86	6428.57
938.03	6328.22
938.20	6440.86
938.36	6225.82
938.53	6145.95
938.70	6127.52
938.86	5996.45
939.03	5939.11
939.20	5836.71
939.36	5730.22
939.53	5760.94
939.70	5930.92
939.86	5629.87
940.03	5468.08
940.19	5572.52
940.36	5492.65
940.53	5529.52
940.69	5326.77
940.86	5416.88
941.03	5308.34
941.19	5261.23
941.36	5214.13
941.52	5257.14
941.69	5105.59
941.86	5013.43
942.02	5033.91
942.19	4911.03
942.35	4974.52
942.52	4937.65
942.69	4984.76
942.85	4820.92
943.02	4919.22
943.18	4843.45
943.35	4798.39
943.52	4773.82
943.68	4695.99
943.85	4564.92
944.01	4605.88
944.18	4540.35
944.35	4632.51
944.51	4585.40
944.68	4528.06
944.84	4374.46
945.01	4464.57
945.17	4511.68
945.34	4450.24
945.51	4489.15
945.67	4462.52
945.84	4435.90
946.00	4358.08
946.17	4413.37
946.33	4204.48
946.50	4468.67
946.67	4466.62
946.83	4351.93
947.00	4349.89
947.16	4313.02
947.33	4364.22
947.49	4292.54
947.66	4267.97
947.82	4284.35
947.99	4247.49
948.16	4274.11
948.32	4278.21
948.49	4278.21
948.65	4335.55
948.82	4253.63
948.98	4370.37
949.15	4192.19
949.31	4306.88
949.48	4407.23
949.64	4296.64
949.81	4270.01
949.97	4272.06
950.14	4388.80
950.30	4315.07
950.47	4310.97
950.63	4304.83
950.80	4337.60
950.96	4263.87
951.13	4251.58
951.30	4331.45
951.46	4446.14
951.63	4456.38
951.79	4313.02
951.96	4327.36
952.12	4247.49
952.29	4411.32
952.45	4425.66
952.62	4368.32
952.78	4333.50
952.94	4294.59
953.11	4407.23
953.27	4272.06
953.44	4466.62
953.60	4394.94
953.77	4468.67
953.93	4497.34
954.10	4511.68
954.26	4370.37
954.43	4366.27
954.59	4411.32
954.76	4376.51
954.92	4427.71
955.09	4503.48
955.25	4474.81
955.42	4347.84
955.58	4423.61
955.75	4593.59
955.91	4388.80
956.07	4411.32
956.24	4399.04
956.40	4353.98
956.57	4491.20
956.73	4460.48
956.90	4378.56
957.06	4358.08
957.23	4409.28
957.39	4427.71
957.56	4448.19
957.72	4425.66
957.88	4487.10
958.05	4478.91
958.21	4526.01
958.38	4472.76
958.54	4380.61
958.71	4440.00
958.87	4442.04
959.03	4517.82
959.20	4364.22
959.36	4476.86
959.53	4431.80
959.69	4261.82
959.85	4380.61
960.02	4368.32
960.18	4519.87
960.35	4446.14
960.51	4466.62
960.68	4505.53
960.84	4423.61
961.00	4444.09
961.17	4491.20
961.33	4374.46
961.50	4374.46
961.66	4376.51
961.82	4384.70
961.99	4427.71
962.15	4380.61
962.31	4474.81
962.48	4480.96
962.64	4540.35
962.81	4466.62
962.97	4501.44
963.13	4415.42
963.30	4454.33
963.46	4298.69
963.62	4345.79
963.79	4302.78
963.95	4362.17
964.12	4335.55
964.28	4288.45
964.44	4267.97
964.61	4290.49
964.77	4222.91
964.93	4333.50
965.10	4298.69
965.26	4319.17
965.42	4286.40
965.59	4337.60
965.75	4317.12
965.92	4216.77
966.08	4278.21
966.24	4280.25
966.41	4378.56
966.57	4319.17
966.73	4331.45
966.90	4384.70
967.06	4341.69
967.22	4255.68
967.39	4161.47
967.55	4194.24
967.71	4145.09
967.88	4192.19
968.04	4106.18
968.20	4149.18
968.37	4016.07
968.53	4126.66
968.69	4110.27
968.85	4315.07
969.02	4184.00
969.18	4067.27
969.34	4110.27
969.51	4196.29
969.67	4224.96
969.83	4151.23
970.00	4190.14
970.16	4186.05
970.32	4114.37
970.48	4304.83
970.65	4075.46
970.81	4014.02
970.97	4085.70
971.14	4054.98
971.30	4089.79
971.46	4112.32
971.63	4126.66
971.79	4116.42
971.95	3985.35
972.11	4089.79
972.28	3985.35
972.44	4100.03
972.60	3934.15
972.76	3979.20
972.93	3989.44
973.09	3907.52
973.25	4001.73
973.42	3915.72
973.58	3856.33
973.74	3981.25
973.90	3975.11
974.07	3823.56
974.23	3899.33
974.39	4007.87
974.55	3968.96
974.72	3950.53
974.88	3825.61
975.04	3766.21
975.20	3833.80
975.37	4040.64
975.53	3868.61
975.69	3964.87
975.85	3872.71
976.01	3770.31
976.18	3731.40
976.34	3798.98
976.50	3895.24
976.66	3983.30
976.83	3663.82
976.99	3807.17
977.15	3712.97
977.31	3717.06
977.47	3725.26
977.64	3874.76
977.80	3790.79
977.96	3866.56
978.12	3678.15
978.29	3776.45
978.45	3747.78
978.61	3774.41
978.77	3684.30
978.93	3772.36
979.10	3665.86
979.26	3696.58
979.42	3684.30
979.58	3657.67
979.74	3698.63
979.91	3692.49
980.07	3555.27
980.23	3629.00
980.39	3688.39
980.55	3596.23
980.71	3567.56
980.88	3522.51
981.04	3665.86
981.20	3549.13
981.36	3563.47
981.52	3614.66
981.68	3495.88
981.85	3657.67
982.01	3567.56
982.17	3450.83
982.33	3585.99
982.49	3542.99
982.65	3542.99
982.82	3506.12
982.98	3489.74
983.14	3477.45
983.30	3452.88
983.46	3516.36
983.62	3581.90
983.79	3495.88
983.95	3481.55
984.11	3293.13
984.27	3418.06
984.43	3409.87
984.59	3571.66
984.75	3330.00
984.91	3387.34
985.08	3350.48
985.24	3420.11
985.40	3264.46
985.56	3444.68
985.72	3370.96
985.88	3323.85
986.04	3280.85
986.20	3194.83
986.37	3323.85
986.53	3358.67
986.69	3383.24
986.85	3246.03
987.01	3317.71
987.17	3278.80
987.33	3364.81
987.49	3248.08
987.65	3334.09
987.82	3233.74
987.98	3213.26
988.14	3356.62
988.30	3153.87
988.46	3188.69
988.62	3137.49
988.78	3233.74
988.94	3149.78
989.10	3278.80
989.26	3157.97
989.42	3198.93
989.59	3041.23
989.75	3096.53
989.91	3133.39
990.07	3000.27
990.23	3178.45
990.39	3096.53
990.55	3094.48
990.71	3059.67
990.87	3039.19
991.03	3213.26
991.19	3084.24
991.35	3069.91
991.51	3069.91
991.67	3164.11
991.83	3071.95
992.00	3004.37
992.16	3028.95
992.32	2985.94
992.48	3069.91
992.64	2947.03
992.80	3065.81
992.96	3059.67
993.12	2975.70
993.28	2990.03
993.44	3043.28
993.60	3018.71
993.76	3065.81
993.92	2938.84
994.08	2944.98
994.24	2955.22
994.40	3053.52
994.56	3039.19
994.72	2875.35
994.88	2889.68
995.04	2918.36
995.20	2949.08
995.36	2914.26
995.52	2912.21
995.68	2861.01
995.84	2926.55
996.00	2924.50
996.16	2930.64
996.32	2908.12
996.48	2836.44
996.64	2904.02
996.80	2871.25
996.96	2830.29
997.12	2863.06
997.28	2815.96
997.44	2738.13
997.60	2912.21
997.76	2734.04
997.92	2901.97
998.08	2834.39
998.24	2844.63
998.40	2721.75
998.56	2772.95
998.72	2803.67
998.88	2736.09
999.04	2787.29
999.20	2697.17
999.36	2750.42
999.52	2897.88
999.68	2793.43
999.84	2803.67
1000.00	2797.53
1000.16	2729.94
1000.32	2668.50
1000.48	2762.71
1000.64	2703.32
1000.80	2678.74
1000.95	2648.02
1001.11	2754.52
1001.27	2623.45
1001.43	2707.41
1001.59	2752.47
1001.75	2729.94
1001.91	2596.82
1002.07	2719.70
1002.23	2729.94
1002.39	2611.16
1002.55	2645.98
1002.71	2672.60
1002.87	2670.55
1003.03	2506.71
1003.19	2594.78
1003.34	2594.78
1003.50	2482.14
1003.66	2623.45
1003.82	2592.73
1003.98	2547.67
1004.14	2564.06
1004.30	2521.05
1004.46	2467.80
1004.62	2465.75
1004.78	2598.87
1004.94	2625.50
1005.09	2549.72
1005.25	2574.30
1005.41	2443.23
1005.57	2516.95
1005.73	2465.75
1005.89	2400.22
1006.05	2498.52
1006.21	2590.68
1006.37	2531.29
1006.52	2451.42
1006.68	2449.37
1006.84	2461.66
1007.00	2449.37
1007.16	2453.47
1007.32	2508.76
1007.48	2449.37
1007.64	2502.62
1007.79	2555.86
1007.95	2514.91
1008.11	2441.18
1008.27	2365.40
1008.43	2496.47
1008.59	2396.12
1008.75	2426.84
1008.91	2398.17
1009.06	2392.03
1009.22	2404.32
1009.38	2426.84
1009.54	2340.83
1009.70	2326.49
1009.86	2344.92
1010.01	2457.56
1010.17	2396.12
1010.33	2367.45
1010.49	2402.27
1010.65	2275.29
1010.81	2353.12
1010.96	2293.72
1011.12	2367.45
1011.28	2281.44
1011.44	2273.25
1011.60	2340.83
1011.76	2244.57
1011.91	2377.69
1012.07	2252.77
1012.23	2248.67
1012.39	2342.88
1012.55	2301.92
1012.71	2289.63
1012.86	2299.87
1013.02	2242.53
1013.18	2273.25
1013.34	2191.33
1013.50	2248.67
1013.65	2330.59
1013.81	2189.28
1013.97	2279.39
1014.13	2248.67
1014.29	2252.77
1014.44	2267.10
1014.60	2240.48
1014.76	2269.15
1014.92	2246.62
1015.07	2170.85
1015.23	2191.33
1015.39	2187.23
1015.55	2179.04
1015.71	2127.84
1015.86	2185.18
1016.02	2131.94
1016.18	2115.55
1016.34	2156.51
1016.49	2240.48
1016.65	2136.03
1016.81	2152.42
1016.97	2193.37
1017.12	2197.47
1017.28	2176.99
1017.44	2109.41
1017.60	2142.18
1017.75	2062.30
1017.91	2140.13
1018.07	2179.04
1018.23	2129.89
1018.38	2129.89
1018.54	2068.45
1018.70	2111.46
1018.86	2082.78
1019.01	2062.30
1019.17	2166.75
1019.33	2142.18
1019.49	2064.35
1019.64	2115.55
1019.80	2062.30
1019.96	2097.12
1020.12	2150.37
1020.27	2015.20
1020.43	2052.06
1020.59	2031.58
1020.74	2070.50
1020.90	2019.30
1021.06	2004.96
1021.22	2015.20
1021.37	2000.87
1021.53	2023.39
1021.69	1953.76
1021.84	2041.82
1022.00	1994.72
1022.16	2090.98
1022.31	1945.57
1022.47	2086.88
1022.63	2017.25
1022.79	1912.80
1022.94	2023.39
1023.10	2039.78
1023.26	2019.30
1023.41	1959.91
1023.57	2002.91
1023.73	1996.77
1023.88	1957.86
1024.04	1931.23
1024.20	1953.76
1024.35	2023.39
1024.51	2033.63
1024.67	1937.38
1024.82	1976.29
1024.98	1904.61
1025.14	1990.63
1025.29	1898.47
1025.45	1986.53
1025.61	1925.09
1025.76	1912.80
1025.92	1859.56
1026.08	1933.28
1026.23	1923.04
1026.39	1906.66
1026.55	1902.56
1026.70	1920.99
1026.86	1908.71
1027.02	1918.95
1027.17	1880.04
1027.33	1970.15
1027.48	1947.62
1027.64	1933.28
1027.80	1941.47
1027.95	1902.56
1028.11	1875.94
1028.27	1953.76
1028.42	1943.52
1028.58	1902.56
1028.73	1841.12
1028.89	1843.17
1029.05	1806.31
1029.20	1937.38
>>>>>End Processed Spectral Data<<<<<
