SpectraSuite Data File
++++++++++++++++++++++++++++++++++++
Date: Tue Jun 13 11:50:59 CEST 2017
User: INFO_000
Dark Spectrum Present: No
Reference Spectrum Present: No
Number of Sampled Component Spectra: 1
Spectrometers: USB4H00879
Integration Time (usec): 30000 (USB4H00879)
Spectra Averaged: 1 (USB4H00879)
Boxcar Smoothing: 0 (USB4H00879)
Correct for Electrical Dark: No (USB4H00879)
Strobe/Lamp Enabled: No (USB4H00879)
Correct for Detector Non-linearity: No (USB4H00879)
Correct for Stray Light: No (USB4H00879)
Number of Pixels in Processed Spectrum: 3648
>>>>>Begin Processed Spectral Data<<<<<
345.13	1296.36
345.34	1296.36
345.56	1296.36
345.78	1282.03
345.99	1347.56
346.21	1464.30
346.42	1458.15
346.64	1470.44
346.86	1560.55
347.07	1517.54
347.29	1458.15
347.50	1427.43
347.72	1488.87
347.94	1519.59
348.15	1519.59
348.37	1452.01
348.59	1505.26
348.80	1462.25
349.02	1617.90
349.23	1626.09
349.45	1544.17
349.67	1636.33
349.88	1617.90
350.10	1658.85
350.31	1605.61
350.53	1591.27
350.75	1708.01
350.96	1597.42
351.18	1689.57
351.39	1615.85
351.61	1632.23
351.82	1607.66
352.04	1671.14
352.26	1636.33
352.47	1667.05
352.69	1683.43
352.90	1605.61
353.12	1611.75
353.34	1619.94
353.55	1724.39
353.77	1662.95
353.98	1628.14
354.20	1634.28
354.41	1642.47
354.63	1710.05
354.85	1675.24
355.06	1660.90
355.28	1636.33
355.49	1667.05
355.71	1660.90
355.92	1667.05
356.14	1673.19
356.35	1662.95
356.57	1644.52
356.79	1714.15
357.00	1630.18
357.22	1703.91
357.43	1644.52
357.65	1634.28
357.86	1699.81
358.08	1658.85
358.29	1755.11
358.51	1691.62
358.72	1751.01
358.94	1724.39
359.16	1677.29
359.37	1746.92
359.59	1652.71
359.80	1734.63
360.02	1677.29
360.23	1740.77
360.45	1722.34
360.66	1720.29
360.88	1687.53
361.09	1701.86
361.31	1695.72
361.52	1744.87
361.74	1712.10
361.95	1771.49
362.17	1681.38
362.38	1759.21
362.60	1755.11
362.81	1763.30
363.03	1675.24
363.24	1802.21
363.46	1771.49
363.67	1755.11
363.89	1775.59
364.10	1726.44
364.32	1720.29
364.53	1806.31
364.75	1802.21
364.96	1765.35
365.18	1816.55
365.39	1775.59
365.61	1767.40
365.82	1886.18
366.04	1841.12
366.25	1691.62
366.47	1859.56
366.68	1734.63
366.90	1759.21
367.11	1847.27
367.33	1822.69
367.54	1787.88
367.76	1802.21
367.97	1798.12
368.19	1914.85
368.40	1822.69
368.62	1742.82
368.83	1806.31
369.05	1841.12
369.26	1853.41
369.48	1853.41
369.69	1808.36
369.91	1867.75
370.12	1871.84
370.33	1847.27
370.55	1775.59
370.76	1857.51
370.98	1871.84
371.19	1865.70
371.41	1822.69
371.62	1933.28
371.84	1857.51
372.05	1892.32
372.27	1886.18
372.48	1871.84
372.69	1968.10
372.91	1925.09
373.12	1908.71
373.34	1882.08
373.55	1988.58
373.77	1955.81
373.98	1964.00
374.20	1908.71
374.41	2060.26
374.62	1933.28
374.84	1943.52
375.05	2021.35
375.27	1994.72
375.48	2041.82
375.70	1968.10
375.91	2086.88
376.12	2086.88
376.34	1976.29
376.55	1966.05
376.77	1953.76
376.98	2011.11
377.19	1949.67
377.41	2066.40
377.62	2095.07
377.84	2017.25
378.05	2148.32
378.27	2107.36
378.48	2074.59
378.69	2109.41
378.91	2166.75
379.12	1996.77
379.34	2060.26
379.55	2131.94
379.76	2117.60
379.98	2011.11
380.19	2111.46
380.41	2062.30
380.62	2099.17
380.83	2058.21
381.05	2117.60
381.26	2193.37
381.47	2187.23
381.69	2224.09
381.90	2236.38
382.12	2129.89
382.33	2154.46
382.54	2148.32
382.76	2121.70
382.97	2144.22
383.19	2121.70
383.40	2209.76
383.61	2207.71
383.83	2111.46
384.04	2140.13
384.25	2228.19
384.47	2181.09
384.68	2193.37
384.89	2207.71
385.11	2213.85
385.32	2222.05
385.54	2336.73
385.75	2189.28
385.96	2207.71
386.18	2285.53
386.39	2271.20
386.60	2234.33
386.82	2334.68
387.03	2281.44
387.24	2310.11
387.46	2312.16
387.67	2340.83
387.88	2344.92
388.10	2432.99
388.31	2355.16
388.52	2418.65
388.74	2379.74
388.95	2445.27
389.16	2441.18
389.38	2441.18
389.59	2465.75
389.80	2514.91
390.02	2496.47
390.23	2478.04
390.44	2420.70
390.66	2402.27
390.87	2533.34
391.08	2471.90
391.30	2539.48
391.51	2531.29
391.72	2572.25
391.94	2531.29
392.15	2510.81
392.36	2584.54
392.58	2570.20
392.79	2594.78
393.00	2635.74
393.22	2627.54
393.43	2623.45
393.64	2664.41
393.85	2715.61
394.07	2635.74
394.28	2648.02
394.49	2809.81
394.71	2670.55
394.92	2758.61
395.13	2641.88
395.35	2684.89
395.56	2691.03
395.77	2772.95
395.98	2758.61
396.20	2768.85
396.41	2768.85
396.62	2842.58
396.84	2854.87
397.05	2799.57
397.26	2842.58
397.47	2906.07
397.69	2840.53
397.90	2734.04
398.11	2944.98
398.32	2818.00
398.54	2811.86
398.75	2856.92
398.96	2942.93
399.18	3000.27
399.39	2879.44
399.60	2926.55
399.81	2953.17
400.03	3012.56
400.24	3223.50
400.45	2955.22
400.66	3098.58
400.88	2967.51
401.09	3026.90
401.30	3123.15
401.51	3135.44
401.73	3086.29
401.94	3123.15
402.15	3125.20
402.36	3143.63
402.58	3145.68
402.79	3221.45
403.00	3250.13
403.21	3200.98
403.43	3196.88
403.64	3268.56
403.85	3192.78
404.06	3215.31
404.27	3176.40
404.49	3258.32
404.70	3119.06
404.91	3317.71
405.12	3295.18
405.34	3200.98
405.55	3364.81
405.76	3147.73
405.97	3323.85
406.19	3268.56
406.40	3395.53
406.61	3286.99
406.82	3373.00
407.03	3428.30
407.25	3297.23
407.46	3456.97
407.67	3557.32
407.88	3459.02
408.09	3389.39
408.31	3561.42
408.52	3432.40
408.73	3379.15
408.94	3432.40
409.15	3561.42
409.37	3645.38
409.58	3440.59
409.79	3575.75
410.00	3540.94
410.21	3442.64
410.43	3487.69
410.64	3629.00
410.85	3551.18
411.06	3663.82
411.27	3712.97
411.48	3657.67
411.70	3616.71
411.91	3672.01
412.12	3770.31
412.33	3614.66
412.54	3674.06
412.76	3825.61
412.97	3721.16
413.18	3749.83
413.39	3700.68
413.60	3715.02
413.81	3774.41
414.03	3872.71
414.24	3860.42
414.45	3862.47
414.66	3639.24
414.87	3784.65
415.08	3801.03
415.30	3858.37
415.51	3893.19
415.72	3921.86
415.93	3915.72
416.14	3950.53
416.35	3882.95
416.56	3944.39
416.78	3956.68
416.99	4093.89
417.20	3952.58
417.41	3983.30
417.62	3950.53
417.83	4059.07
418.04	4081.60
418.26	4077.51
418.47	4134.85
418.68	4184.00
418.89	4202.43
419.10	4210.62
419.31	4169.66
419.52	4157.38
419.73	4222.91
419.95	4302.78
420.16	4177.86
420.37	4067.27
420.58	4184.00
420.79	4300.73
421.00	4356.03
421.21	4476.86
421.42	4224.96
421.63	4501.44
421.85	4396.99
422.06	4542.39
422.27	4384.70
422.48	4478.91
422.69	4589.50
422.90	4622.27
423.11	4646.84
423.32	4454.33
423.53	4583.35
423.75	4638.65
423.96	4802.49
424.17	4710.33
424.38	4665.27
424.59	4700.09
424.80	4968.37
425.01	4771.77
425.22	4726.71
425.43	4849.59
425.64	4792.25
425.85	4884.41
426.06	4888.50
426.28	4857.78
426.49	4949.94
426.70	5009.33
426.91	4927.41
427.12	5101.49
427.33	5089.20
427.54	5046.20
427.75	5195.70
427.96	5207.98
428.17	5113.78
428.38	5210.03
428.59	5361.58
428.80	5191.60
429.01	5359.53
429.23	5265.33
429.44	5511.08
429.65	5468.08
429.86	5476.27
430.07	5277.62
430.28	5345.20
430.49	5550.00
430.70	5574.57
430.91	5529.52
431.12	5341.10
431.33	5703.59
431.54	5572.52
431.75	5584.81
431.96	5654.44
432.17	5642.15
432.38	5687.21
432.59	5865.38
432.80	5697.45
433.01	5791.66
433.22	5982.12
433.43	5881.77
433.64	5769.13
433.85	5709.74
434.06	5896.10
434.27	5869.48
434.49	6041.51
434.70	6150.05
434.91	5967.78
435.12	5928.87
435.33	5978.02
435.54	6107.04
435.75	6014.88
435.96	6061.99
436.17	5892.01
436.38	6285.22
436.59	6225.82
436.80	6215.59
437.01	6234.02
437.22	6367.13
437.43	6315.94
437.64	6244.26
437.85	6291.36
438.06	6438.81
438.27	6203.30
438.48	6274.98
438.69	6332.32
438.90	6481.82
439.11	6494.11
439.32	6535.07
439.53	6506.40
439.74	6522.78
439.95	6782.87
440.16	6514.59
440.37	6547.36
440.57	6514.59
440.78	6610.84
440.99	6768.54
441.20	6754.20
441.41	6594.46
441.62	6641.56
441.83	6625.18
442.04	6823.83
442.25	6885.27
442.46	6801.30
442.67	7096.21
442.88	7380.88
443.09	6922.13
443.30	6963.09
443.51	7165.84
443.72	7270.29
443.93	7061.40
444.14	7264.15
444.35	6872.98
444.56	7212.95
444.77	7217.04
444.98	7092.12
445.19	7370.64
445.40	7253.91
445.61	7192.47
445.81	7374.74
446.02	7370.64
446.23	7303.06
446.44	7198.61
446.65	7354.26
446.86	7366.54
447.07	7399.31
447.28	7694.22
447.49	7643.02
447.70	7460.75
447.91	7581.58
448.12	7470.99
448.33	7731.08
448.54	7655.31
448.74	7524.24
448.95	7790.47
449.16	7585.68
449.37	8007.56
449.58	7690.12
449.79	7933.83
450.00	7694.22
450.21	7903.11
450.42	7886.73
450.63	8071.04
450.84	7882.63
451.05	7937.93
451.25	8148.87
451.46	7937.93
451.67	8318.85
451.88	8368.00
452.09	8152.96
452.30	8212.35
452.51	8124.29
452.72	8173.44
452.93	8564.61
453.13	8304.51
453.34	8308.61
453.55	8580.99
453.76	8349.57
453.97	8863.61
454.18	8748.92
454.39	8695.68
454.60	8507.26
454.81	8554.37
455.01	8855.42
455.22	8490.88
455.43	8759.16
455.64	9006.97
455.85	9232.24
456.06	9226.10
456.27	8849.27
456.48	8988.53
456.68	9252.72
456.89	9058.17
457.10	9211.76
457.31	8986.49
457.52	9244.53
457.73	9301.87
457.94	9555.82
458.14	9445.23
458.35	9633.64
458.56	9568.11
458.77	9369.46
458.98	9615.21
459.19	9742.19
459.39	9523.05
459.60	9971.56
459.81	9510.77
460.02	9977.70
460.23	9879.40
460.44	10401.63
460.65	10168.16
460.85	10239.84
461.06	10092.39
461.27	10024.81
461.48	10354.53
461.69	10442.59
461.89	10053.48
462.10	10190.69
462.31	10106.73
462.52	10159.97
462.73	10270.56
462.94	10610.53
463.14	10755.93
463.35	10575.71
463.56	10901.34
463.77	10923.87
463.98	10700.64
464.18	10807.13
464.39	11040.60
464.60	11075.42
464.81	11161.43
465.02	11183.96
465.23	11298.64
465.43	11028.31
465.64	11487.06
465.85	11626.32
466.06	11319.12
466.27	11863.88
466.47	11738.96
466.68	11665.23
466.89	12033.86
467.10	11943.75
467.30	11822.92
467.51	11896.65
467.72	12382.02
467.93	11966.28
468.14	12080.97
468.34	12214.09
468.55	12369.73
468.76	12373.83
468.97	12277.57
469.17	12568.38
469.38	12642.11
469.59	12758.85
469.80	12558.14
470.01	12515.14
470.21	12863.29
470.42	13176.63
470.63	13176.63
470.84	12885.82
471.04	13041.46
471.25	13432.63
471.46	13238.07
471.67	13520.69
471.87	13467.44
472.08	13795.12
472.29	13922.09
472.50	13483.83
472.70	13573.94
472.91	13811.50
473.12	14341.93
473.33	14090.02
473.53	14276.39
473.74	14260.01
473.95	14448.42
474.16	14679.84
474.36	14440.23
474.57	14747.42
474.78	14829.34
474.99	14653.22
475.19	14925.60
475.40	15269.66
475.61	15214.36
475.81	15621.91
476.02	15662.86
476.23	15232.79
476.44	15789.84
476.64	16168.71
476.85	16054.03
477.06	15838.99
477.27	16209.67
477.47	16510.72
477.68	16140.04
477.89	16615.17
478.09	16584.45
478.30	16658.18
478.51	16604.93
478.71	16643.84
478.92	17012.48
479.13	16920.32
479.34	17354.49
479.54	17182.46
479.75	17135.35
479.96	17370.87
480.16	17483.51
480.37	17643.25
480.58	17948.40
480.78	18183.91
480.99	17983.21
481.20	18314.98
481.41	17972.97
481.61	18376.42
481.82	18517.73
482.03	18462.44
482.23	18714.34
482.44	18783.97
482.65	18857.70
482.85	18800.35
483.06	19009.25
483.27	19216.09
483.47	19263.19
483.68	19482.33
483.89	19453.66
484.09	19472.09
484.30	19662.55
484.51	19783.38
484.71	20180.68
484.92	20010.70
485.13	20141.77
485.33	20700.87
485.54	20219.60
485.75	20823.75
485.95	20723.40
486.16	20604.61
486.37	20786.88
486.57	20836.03
486.78	21135.04
486.98	21046.97
487.19	21642.93
487.40	21624.50
487.60	21413.56
487.81	21710.52
488.02	21610.17
488.22	21468.86
488.43	22138.54
488.64	22197.93
488.84	22111.92
489.05	22382.25
489.25	22408.87
489.46	22554.28
489.67	22634.15
489.87	22478.50
490.08	22691.49
490.29	23084.70
490.49	22931.11
490.70	23172.77
490.90	23565.98
491.11	23215.77
491.32	23213.73
491.52	23707.29
491.73	23527.06
491.94	24157.84
492.14	23713.43
492.35	24065.68
492.55	23961.23
492.76	24080.02
492.97	24481.42
493.17	24168.08
493.38	24725.13
493.58	24966.79
493.79	25044.61
494.00	24669.83
494.20	24934.02
494.41	24805.00
494.61	25042.56
494.82	25278.08
495.02	24954.50
495.23	25339.52
495.44	25540.22
495.64	25769.59
495.85	25681.53
496.05	25859.70
496.26	25816.69
496.47	26304.11
496.67	25847.41
496.88	26504.81
497.08	26048.11
497.29	26490.48
497.49	26349.17
497.70	26705.51
497.91	26812.01
498.11	26746.47
498.32	26844.77
498.52	26949.22
498.73	27305.57
498.93	27197.02
499.14	27455.07
499.34	27369.05
499.55	27244.13
499.76	27405.92
499.96	27399.77
500.17	27414.11
500.37	27661.91
500.58	27598.43
500.78	27817.56
500.99	27903.57
501.19	28495.44
501.40	27915.86
501.60	28169.81
501.81	28071.51
502.02	28139.09
502.22	28440.14
502.43	28474.96
502.63	28446.29
502.84	28831.30
503.04	28743.24
503.25	28933.70
503.45	29042.24
503.66	29331.01
503.86	29003.33
504.07	29345.34
504.27	29394.50
504.48	29445.69
504.68	29511.23
504.89	29326.91
505.09	29427.26
505.30	29607.48
505.50	29888.06
505.71	30066.23
505.91	29898.30
506.12	29900.34
506.32	29834.81
506.53	29883.96
506.73	30303.79
506.94	30162.48
507.14	30334.51
507.35	30021.17
507.55	30520.88
507.76	30391.86
507.96	30473.78
508.17	30672.43
508.37	30740.01
508.58	30901.80
508.78	30436.91
508.99	30930.47
509.19	30760.49
509.40	31290.91
509.60	30946.86
509.81	31243.81
510.01	31055.40
510.22	31229.48
510.42	31405.60
510.63	31497.76
510.83	31348.26
511.04	31471.14
511.24	31311.39
511.44	31987.22
511.65	31845.91
511.85	31809.05
512.06	31716.89
512.26	31798.81
512.47	32030.23
512.67	32013.85
512.88	32306.71
513.08	31825.43
513.29	32243.22
513.49	32255.51
513.69	32247.32
513.90	32632.33
514.10	32093.72
514.31	32769.55
514.51	32749.07
514.72	32464.40
514.92	32613.90
515.13	32380.43
515.33	32853.51
515.53	33076.74
515.74	32931.34
515.94	32976.39
516.15	32988.68
516.35	32994.82
516.56	33246.72
516.76	33390.08
516.96	33084.94
517.17	33480.19
517.37	33248.77
517.58	33564.16
517.78	33795.58
517.99	33664.51
518.19	33611.26
518.39	33871.36
518.60	34346.48
518.80	33910.27
519.01	34162.17
519.21	34004.47
519.41	34178.55
519.62	34403.83
519.82	34035.19
520.03	34446.83
520.23	34381.30
520.43	34582.00
520.64	34668.02
520.84	35044.84
521.05	34479.60
521.25	35063.27
521.45	35235.30
521.66	35044.84
521.86	35200.49
522.07	35292.65
522.27	35341.80
522.47	35149.29
522.68	35792.35
522.88	35329.51
523.08	35769.82
523.29	35855.84
523.49	35669.47
523.70	35792.35
523.90	36087.26
524.10	36034.01
524.31	36197.85
524.51	36115.93
524.71	36265.43
524.92	36154.84
525.12	36605.39
525.33	36353.49
525.53	36529.62
525.73	36812.24
525.94	36541.91
526.14	36777.42
526.34	36998.60
526.55	36892.11
526.75	37187.02
526.95	37354.95
527.16	37354.95
527.36	37047.75
527.56	37592.51
527.77	37684.67
527.97	37408.20
528.17	37742.02
528.38	37846.46
528.58	37891.52
528.78	37928.38
528.99	37987.77
529.19	38706.61
529.39	37805.50
529.60	38448.57
529.80	38499.76
530.00	38190.52
530.21	38876.59
530.41	39181.74
530.61	38706.61
530.82	38737.33
531.02	38817.20
531.22	38837.68
531.43	39173.55
531.63	39466.41
531.83	39738.79
532.04	39634.34
532.24	39599.52
532.44	40156.57
532.64	39884.19
532.85	40082.84
533.05	39988.64
533.25	39972.25
533.46	40265.11
533.66	40398.23
533.86	40242.59
534.07	40410.52
534.27	40506.77
534.47	40945.04
534.67	41133.45
534.88	40951.18
535.08	40867.22
535.28	41297.29
535.49	41364.87
535.69	41639.30
535.89	41459.08
536.09	41471.37
536.30	42274.17
536.50	41850.24
536.70	41993.60
536.91	41973.12
537.11	42022.27
537.31	42114.43
537.51	42296.70
537.72	42567.03
537.92	42712.44
538.12	42802.55
538.32	42550.65
538.53	42841.46
538.73	42683.76
538.93	42802.55
539.13	42855.79
539.34	42894.71
539.54	42694.00
539.74	43322.73
539.94	43195.76
540.15	43218.28
540.35	43797.86
540.55	43152.75
540.75	43427.18
540.96	43711.84
541.16	43654.50
541.36	43767.14
541.56	43728.23
541.77	43894.11
541.97	44115.29
542.17	44404.06
542.37	44430.68
542.58	44336.48
542.78	44119.39
542.98	44559.70
543.18	44199.26
543.38	44954.96
543.59	44731.73
543.79	44672.34
543.99	44838.23
544.19	44680.53
544.40	44631.38
544.60	45450.57
544.80	44930.39
545.00	45520.20
545.20	45061.46
545.41	45450.57
545.61	45215.05
545.81	45393.23
546.01	45798.73
546.21	45509.96
546.42	45440.33
546.62	46167.36
546.82	45436.23
547.02	45505.87
547.22	46042.43
547.43	45493.58
547.63	45872.45
547.83	45909.32
548.03	45827.40
548.23	46019.91
548.44	45935.94
548.64	45935.94
548.84	45985.09
549.04	46351.68
549.24	46660.92
549.45	46476.60
549.65	46179.65
549.85	46443.84
550.05	46552.38
550.25	46531.90
550.45	47150.38
550.66	46638.39
550.86	46366.01
551.06	47119.66
551.26	47248.69
551.46	47510.83
551.66	46964.02
551.87	46880.05
552.07	47197.49
552.27	47199.54
552.47	46882.10
552.67	47183.15
552.87	46984.50
553.07	47572.27
553.28	47643.94
553.48	47764.78
553.68	47578.41
553.88	47828.26
554.08	47648.04
554.28	47793.45
554.48	47320.37
554.69	47512.88
554.89	47619.37
555.09	47850.79
555.29	47420.72
555.49	47846.69
555.69	47840.55
555.89	47605.03
556.10	48209.18
556.30	47762.73
556.50	48067.87
556.70	47957.28
556.90	48119.07
557.10	48123.17
557.30	48004.39
557.50	48448.80
557.70	48495.90
557.91	48571.67
558.11	48540.96
558.31	48327.97
558.51	48774.42
558.71	48143.65
558.91	48428.32
559.11	48588.06
559.31	48792.86
559.51	48520.48
559.72	48336.16
559.92	49014.04
560.12	48360.73
560.32	48907.54
560.52	48842.01
560.72	49368.33
560.92	48899.35
561.12	48745.75
561.32	49401.10
561.52	48719.13
561.72	49145.11
561.93	48866.58
562.13	49116.43
562.33	48911.64
562.53	49784.07
562.73	49108.24
562.93	49380.62
563.13	49507.60
563.33	48981.27
563.53	48995.60
563.73	48747.80
563.93	49200.40
564.13	49911.05
564.33	48958.74
564.53	49468.69
564.74	49648.91
564.94	49386.77
565.14	49386.77
565.34	49212.69
565.54	49634.57
565.74	49480.97
565.94	50257.15
566.14	49605.90
566.34	49751.30
566.54	50205.95
566.74	49603.85
566.94	49849.61
567.14	50021.64
567.34	49648.91
567.54	49980.68
567.74	49796.36
567.94	49708.30
568.14	49931.53
568.34	50099.46
568.54	49753.35
568.74	50105.60
568.94	50242.82
569.14	50154.75
569.34	50242.82
569.54	50070.79
569.75	49792.26
569.95	50142.47
570.15	50601.21
570.35	50287.87
570.55	50619.64
570.75	50216.19
570.95	50081.03
571.15	50388.22
571.35	50627.84
571.55	50857.21
571.75	50767.10
571.95	50851.06
572.15	50382.08
572.35	50711.80
572.55	50867.45
572.75	50750.71
572.95	50603.26
573.15	51004.66
573.35	50754.81
573.55	50828.54
573.75	50791.67
573.95	51199.22
574.15	50916.60
574.35	51082.48
574.55	51352.82
574.75	50955.51
574.95	51139.83
575.15	50644.22
575.34	51055.86
575.54	51033.33
575.74	51221.75
575.94	51332.34
576.14	51821.80
576.34	51664.11
576.54	51928.30
576.74	51772.65
576.94	51373.30
577.14	51397.87
577.34	51760.36
577.54	51504.37
577.74	51756.27
577.94	51965.16
578.14	51600.62
578.34	51809.51
578.54	51469.55
578.74	51848.42
578.94	52370.66
579.14	51703.02
579.34	51825.90
579.54	51786.99
579.74	52432.10
579.94	51743.98
580.13	52438.24
580.33	52548.83
580.53	52319.46
580.73	52042.98
580.93	52167.91
581.13	52364.51
581.33	52690.14
581.53	52608.22
581.73	52460.77
581.93	52767.96
582.13	52688.09
582.33	52651.23
582.53	52557.02
582.73	52925.66
582.92	52733.15
583.12	52864.22
583.32	52411.62
583.52	52819.16
583.72	52966.62
583.92	52802.78
584.12	53451.98
584.32	53746.89
584.52	53486.80
584.72	53253.33
584.92	53300.43
585.11	53912.78
585.31	53437.65
585.51	53849.29
585.71	53406.93
585.91	53808.33
586.11	53116.12
586.31	53519.57
586.51	53249.24
586.71	53595.34
586.91	53830.86
587.10	53361.87
587.30	54097.09
587.50	53720.27
587.70	54187.21
587.90	53955.78
588.10	53947.59
588.30	53798.09
588.50	53939.40
588.69	53843.15
588.89	53691.60
589.09	54238.40
589.29	54320.32
589.49	54719.68
589.69	53806.28
589.89	54148.29
590.08	54287.56
590.28	54297.80
590.48	54478.02
590.68	54162.63
590.88	54650.05
591.08	54324.42
591.28	53892.30
591.47	54498.50
591.67	54232.26
591.87	54570.18
592.07	54510.78
592.27	54738.11
592.47	54500.54
592.67	54469.82
592.86	54310.08
593.06	54576.32
593.26	54942.91
593.46	54695.10
593.66	54637.76
593.86	55026.87
594.05	54779.07
594.25	55088.31
594.45	54701.25
594.65	54965.43
594.85	54832.32
595.05	55358.64
595.24	55256.24
595.44	54947.00
595.64	55256.24
595.84	55082.17
596.04	55086.26
596.23	55520.43
596.43	55057.59
596.63	55131.32
596.83	55178.42
597.03	55981.23
597.22	55678.13
597.42	55332.02
597.62	55614.64
597.82	55358.64
598.02	55225.53
598.21	55680.17
598.41	55438.51
598.61	55714.99
598.81	55846.06
599.01	56231.08
599.20	55655.60
599.40	55579.82
599.60	56179.88
599.80	55948.46
600.00	56024.23
600.19	56218.79
600.39	55837.87
600.59	56065.19
600.79	56444.07
600.98	55780.52
601.18	56323.24
601.38	56599.71
601.58	56403.11
601.78	56509.60
601.97	56296.61
602.17	56220.84
602.37	56501.41
602.57	56247.46
602.76	56999.07
602.96	56446.11
603.16	56640.67
603.36	56775.84
603.55	56861.85
603.75	56624.29
603.95	57191.58
604.15	56724.64
604.34	56587.42
604.54	57007.26
604.74	56874.14
604.94	57195.67
605.13	56990.87
605.33	57205.91
605.53	56986.78
605.73	57113.75
605.92	57150.62
606.12	57103.51
606.32	57529.49
606.52	57085.08
606.71	56931.48
606.91	57674.90
607.11	57054.36
607.30	57365.65
607.50	57183.38
607.70	57476.24
607.90	57162.90
608.09	57271.45
608.29	57246.87
608.49	57476.24
608.68	57025.69
608.88	57410.71
609.08	57595.03
609.28	57625.74
609.47	57052.31
609.67	57922.70
609.87	57646.22
610.06	58041.48
610.26	57724.05
610.46	57762.96
610.66	57646.22
610.85	57947.28
611.05	57623.70
611.25	57631.89
611.44	57769.10
611.64	57939.08
611.84	57293.97
612.03	57990.28
612.23	57803.92
612.43	58180.74
612.62	57461.91
612.82	57627.79
613.02	57648.27
613.21	57791.63
613.41	57562.26
613.61	58027.15
613.80	57449.62
614.00	57726.10
614.20	57660.56
614.39	57939.08
614.59	58152.07
614.79	57808.01
614.98	57801.87
615.18	58057.87
615.38	57752.72
615.57	57599.12
615.77	57490.58
615.97	57844.88
616.16	57848.97
616.36	57816.21
616.56	57635.98
616.75	57924.75
616.95	57697.42
617.15	57652.37
617.34	57494.67
617.54	57392.28
617.74	58141.83
617.93	57824.40
618.13	57523.35
618.32	57734.29
618.52	57259.16
618.72	57910.41
618.91	57865.36
619.11	57402.52
619.31	58000.52
619.50	57375.89
619.70	56960.15
619.90	57707.66
620.09	57529.49
620.29	57427.09
620.48	56974.49
620.68	57771.15
620.88	57076.89
621.07	57674.90
621.27	57420.95
621.46	57296.02
621.66	57349.27
621.86	57076.89
622.05	56851.61
622.25	57511.06
622.44	57343.12
622.64	57091.22
622.84	57455.76
623.03	56818.84
623.23	57351.32
623.42	56882.33
623.62	57425.04
623.82	56839.32
624.01	57207.96
624.21	57410.71
624.40	57058.46
624.60	57136.28
624.80	56865.95
624.99	56968.35
625.19	57138.33
625.38	57099.42
625.58	57193.62
625.77	56958.11
625.97	57003.16
626.17	56564.90
626.36	56857.76
626.56	57080.98
626.75	56587.42
626.95	56839.32
627.14	56456.35
627.34	57519.25
627.54	56353.96
627.73	57046.17
627.93	57050.27
628.12	56851.61
628.32	56480.93
628.51	57158.81
628.71	56489.12
628.90	56616.10
629.10	56954.01
629.30	56902.81
629.49	56734.88
629.69	56442.02
629.88	56757.41
630.08	56706.21
630.27	56710.30
630.47	56945.82
630.66	56274.09
630.86	56599.71
631.05	56153.26
631.25	57140.38
631.44	56579.23
631.64	56894.62
631.84	56818.84
632.03	57136.28
632.23	56437.92
632.42	56822.94
632.62	56550.56
632.81	56513.70
633.01	56710.30
633.20	56890.52
633.40	56423.59
633.59	56845.47
633.79	56388.77
633.98	56650.91
634.18	56624.29
634.37	57013.40
634.57	56284.33
634.76	57076.89
634.96	56851.61
635.15	56734.88
635.35	56288.42
635.54	56503.46
635.74	56704.16
635.93	56222.89
636.13	56755.36
636.32	57123.99
636.52	56347.81
636.71	56655.01
636.91	56313.00
637.10	56642.72
637.30	56267.94
637.49	56698.01
637.69	56202.41
637.88	56640.67
638.08	56210.60
638.27	56824.99
638.46	56378.53
638.66	56173.73
638.85	56677.54
639.05	56769.69
639.24	56067.24
639.44	56290.47
639.63	56542.37
639.83	56210.60
640.02	56489.12
640.22	56403.11
640.41	56677.54
640.61	56313.00
640.80	56542.37
640.99	56124.58
641.19	56700.06
641.38	56489.12
641.58	56468.64
641.77	56513.70
641.97	56550.56
642.16	56337.57
642.36	56439.97
642.55	56765.60
642.74	56116.39
642.94	56374.44
643.13	56280.23
643.33	56702.11
643.52	56095.91
643.72	56454.31
643.91	56607.90
644.10	56564.90
644.30	56738.97
644.49	56480.93
644.69	56548.51
644.88	56280.23
645.08	56282.28
645.27	56364.20
645.46	56300.71
645.66	56495.27
645.85	56288.42
646.05	56296.61
646.24	56542.37
646.43	56077.48
646.63	56548.51
646.82	56657.06
647.02	56110.25
647.21	56693.92
647.40	56022.19
647.60	56671.39
647.79	56439.97
647.99	56478.88
648.18	56290.47
648.37	56741.02
648.57	56609.95
648.76	56384.68
648.96	56112.30
649.15	56521.89
649.34	56669.34
649.54	56552.61
649.73	56249.51
649.92	56964.25
650.12	56708.25
650.31	56837.28
650.51	56321.19
650.70	56956.06
650.89	56595.62
651.09	56777.89
651.28	56308.90
651.47	56628.38
651.67	56124.58
651.86	56509.60
652.06	56241.32
652.25	56503.46
652.44	56546.47
652.64	56534.18
652.83	56224.93
653.02	56358.05
653.22	56521.89
653.41	56265.89
653.60	56247.46
653.80	55921.83
653.99	56679.58
654.18	56403.11
654.38	56308.90
654.57	56339.62
654.76	56310.95
654.96	56272.04
655.15	56247.46
655.34	56382.63
655.54	56226.98
655.73	56380.58
655.92	56872.09
656.12	56040.62
656.31	56138.92
656.50	56366.24
656.70	56317.09
656.89	56130.73
657.08	56224.93
657.28	56108.20
657.47	56073.38
657.66	56462.50
657.86	56478.88
658.05	56173.73
658.24	56130.73
658.43	55911.59
658.63	56241.32
658.82	56122.54
659.01	56050.86
659.21	56177.83
659.40	56286.37
659.59	55819.44
659.79	56147.11
659.98	56165.54
660.17	56229.03
660.36	56026.28
660.56	56693.92
660.75	55903.40
660.94	56313.00
661.14	56212.65
661.33	56247.46
661.52	55944.36
661.71	56065.19
661.91	56054.95
662.10	56399.01
662.29	56458.40
662.49	56110.25
662.68	55698.61
662.87	56435.87
663.06	56110.25
663.26	56124.58
663.45	56128.68
663.64	56300.71
663.83	56388.77
664.03	56249.51
664.22	55878.83
664.41	56091.82
664.60	55930.03
664.80	56016.04
664.99	55573.68
665.18	55801.00
665.37	55852.20
665.57	56339.62
665.76	55770.28
665.95	55876.78
666.14	55876.78
666.34	55936.17
666.53	55567.54
666.72	55913.64
666.91	55540.91
667.11	55850.16
667.30	55897.26
667.49	55727.28
667.68	55547.06
667.87	55624.88
668.07	55540.91
668.26	55927.98
668.45	55430.32
668.64	55354.55
668.84	55909.55
669.03	55862.44
669.22	55415.99
669.41	55313.59
669.60	55362.74
669.80	55123.13
669.99	55362.74
670.18	55454.90
670.37	55198.90
670.57	55792.81
670.76	55579.82
670.95	55782.57
671.14	55833.77
671.33	54838.46
671.53	55473.33
671.72	55243.96
671.91	55289.01
672.10	55078.07
672.29	55174.33
672.48	54928.57
672.68	55186.61
672.87	55403.70
673.06	55076.02
673.25	55325.88
673.44	54932.67
673.64	55047.35
673.83	54678.72
674.02	54846.65
674.21	54947.00
674.40	55049.40
674.59	54846.65
674.79	55119.03
674.98	54404.29
675.17	54815.93
675.36	54504.64
675.55	54783.16
675.74	54392.00
675.94	55080.12
676.13	55076.02
676.32	54533.31
676.51	55198.90
676.70	55289.01
676.89	54430.91
677.08	55219.38
677.28	54459.58
677.47	54742.20
677.66	54721.72
677.85	55033.02
678.04	54631.61
678.23	54103.24
678.42	54260.93
678.62	54152.39
678.81	54670.53
679.00	54621.37
679.19	55028.92
679.38	54650.05
679.57	54480.06
679.76	54566.08
679.96	54365.38
680.15	54236.36
680.34	54447.30
680.53	54394.05
680.72	54162.63
680.91	54662.33
681.10	53898.44
681.29	54183.11
681.48	53925.07
681.68	54615.23
681.87	54172.87
682.06	54164.68
682.25	53613.77
682.44	53681.36
682.63	54058.18
682.82	54052.04
683.01	53843.15
683.20	53527.76
683.39	53691.60
683.59	53658.83
683.78	53214.42
683.97	53531.86
684.16	53404.88
684.35	53277.91
684.54	53558.48
684.73	53357.78
684.92	53480.66
685.11	53511.38
685.30	53171.41
685.49	53824.71
685.69	53220.56
685.88	53523.66
686.07	53310.67
686.26	53380.31
686.45	53306.58
686.64	53408.98
686.83	53343.44
687.02	53413.07
687.21	53568.72
687.40	52985.05
687.59	52856.03
687.78	53191.89
687.97	53279.96
688.16	53040.34
688.35	53026.01
688.54	52927.70
688.74	53062.87
688.93	52966.62
689.12	52909.27
689.31	52896.98
689.50	52954.33
689.69	52327.65
689.88	52344.03
690.07	52524.25
690.26	52405.47
690.45	52944.09
690.64	52466.91
690.83	52729.05
691.02	52634.84
691.21	52471.01
691.40	52335.84
691.59	52661.47
691.78	52108.52
691.97	52679.90
692.16	52333.79
692.35	52626.65
692.54	52278.50
692.73	52458.72
692.92	51887.34
693.11	52100.32
693.30	52186.34
693.49	52294.88
693.68	51901.67
693.87	51995.88
694.06	51952.87
694.25	51481.84
694.44	51668.20
694.63	52208.87
694.82	52022.50
695.01	51959.02
695.20	51625.20
695.39	51340.53
695.58	51430.64
695.77	51293.43
695.96	51430.64
696.15	51463.41
696.34	51502.32
696.53	51688.68
696.72	51346.67
696.91	51231.99
697.10	51473.65
697.29	51166.45
697.48	51455.21
697.67	51031.29
697.86	50822.39
698.05	50961.65
698.24	51139.83
698.43	50711.80
698.62	50881.78
698.81	50588.92
699.00	50709.75
699.19	50627.84
699.38	50849.02
699.57	50326.78
699.76	51299.57
699.95	50853.11
700.14	50566.40
700.32	50713.85
700.51	50482.43
700.70	50625.79
700.89	51199.22
701.08	50580.73
701.27	50169.09
701.46	50586.88
701.65	49884.42
701.84	49880.33
702.03	50287.87
702.22	50164.99
702.41	50062.60
702.60	50517.25
702.79	50087.17
702.98	49952.01
703.17	49792.26
703.35	50027.78
703.54	49849.61
703.73	49990.92
703.92	49925.38
704.11	50015.49
704.30	49997.06
704.49	49712.39
704.68	49716.49
704.87	49583.37
705.06	49714.44
705.25	49534.22
705.43	49800.46
705.62	49960.20
705.81	49425.68
706.00	49280.27
706.19	49202.45
706.38	49151.25
706.57	49270.03
706.76	49192.21
706.95	49259.79
707.14	48940.31
707.32	49198.35
707.51	48743.70
707.70	48815.38
707.89	49143.06
708.08	48856.34
708.27	49208.59
708.46	49433.87
708.65	48528.67
708.84	49077.52
709.02	48878.87
709.21	48973.08
709.40	49169.68
709.59	48948.50
709.78	48618.78
709.97	48710.94
710.16	48543.00
710.34	48678.17
710.53	48385.31
710.72	48467.23
710.91	48436.51
711.10	48706.84
711.29	48411.93
711.48	48205.09
711.66	48297.25
711.85	47961.38
712.04	47975.72
712.23	47969.57
712.42	48573.72
712.61	48266.53
712.80	47895.85
712.98	48121.12
713.17	47670.57
713.36	47689.00
713.55	47738.15
713.74	47699.24
713.93	47934.76
714.11	47680.81
714.30	47602.99
714.49	47736.10
714.68	47576.36
714.87	47574.31
715.06	48045.35
715.24	46970.16
715.43	46921.01
715.62	47273.26
715.81	47064.37
716.00	47172.91
716.18	47293.74
716.37	46804.28
716.56	46867.76
716.75	47508.78
716.94	46804.28
717.12	46712.12
717.31	46908.72
717.50	46753.08
717.69	46974.26
717.88	46859.57
718.06	46779.70
718.25	46595.38
718.44	46884.15
718.63	46544.19
718.82	46507.32
719.00	46265.66
719.19	46015.81
719.38	46085.44
719.57	45894.98
719.76	46140.74
719.94	46058.82
720.13	46273.85
720.32	45761.86
720.51	46159.17
720.69	45825.35
720.88	45780.29
721.07	46122.30
721.26	45430.09
721.44	45831.49
721.63	45768.01
721.82	45178.19
722.01	45186.38
722.20	45890.88
722.38	45573.45
722.57	45047.12
722.76	45180.24
722.95	45184.33
723.13	44610.90
723.32	44991.83
723.51	44633.43
723.70	44911.95
723.88	44668.25
724.07	44854.61
724.26	44750.17
724.44	44303.71
724.63	44297.56
724.82	44361.05
725.01	44451.16
725.19	44926.29
725.38	44772.69
725.57	44260.70
725.76	44678.49
725.94	44010.85
726.13	44438.87
726.32	44432.73
726.51	44229.98
726.69	43982.18
726.88	43998.56
727.07	44574.04
727.25	43963.75
727.44	44281.18
727.63	43824.48
727.82	44160.35
728.00	44207.45
728.19	43726.18
728.38	44369.24
728.56	43443.56
728.75	43812.20
728.94	44021.09
729.12	44010.85
729.31	44184.93
729.50	43484.52
729.69	43945.31
729.87	44008.80
730.06	43832.68
730.25	43652.45
730.43	43769.19
730.62	43582.82
730.81	43902.31
730.99	43570.54
731.18	43965.79
731.37	43607.40
731.55	43537.77
731.74	43810.15
731.93	43711.84
732.11	43416.94
732.30	43699.56
732.49	43400.55
732.67	43502.95
732.86	43398.51
733.05	43730.28
733.23	43357.55
733.42	43613.54
733.61	43326.83
733.79	43378.03
733.98	43431.27
734.17	43201.90
734.35	43124.08
734.54	43085.17
734.73	43255.15
734.91	43418.99
735.10	43150.70
735.29	43337.07
735.47	42741.11
735.66	43531.62
735.84	42536.31
736.03	42775.92
736.22	43277.68
736.40	43093.36
736.59	43076.97
736.78	42952.05
736.96	42648.95
737.15	42874.23
737.33	42737.01
737.52	42521.98
737.71	42620.28
737.89	42083.71
738.08	42528.12
738.27	42677.62
738.45	42622.33
738.64	42585.46
738.82	42530.17
739.01	42536.31
739.20	42327.42
739.38	41938.30
739.57	42663.28
739.75	42511.74
739.94	42132.86
740.13	42669.43
740.31	42331.51
740.50	41999.74
740.68	42415.48
740.87	42265.98
741.06	42231.16
741.24	41944.45
741.43	42216.83
741.61	41997.70
741.80	41837.95
741.99	41981.31
742.17	41762.18
742.36	41706.88
742.54	42012.03
742.73	41657.73
742.91	41995.65
743.10	41758.08
743.29	42083.71
743.47	41948.54
743.66	41549.19
743.84	41510.28
744.03	41416.07
744.21	41532.81
744.40	41381.26
744.59	41229.71
744.77	41217.42
744.96	41430.41
745.14	41483.66
745.33	41743.75
745.51	41368.97
745.70	41665.92
745.88	41112.97
746.07	41246.09
746.26	40908.18
746.44	41115.02
746.63	41106.83
746.81	41059.73
747.00	41053.58
747.18	41151.88
747.37	40832.40
747.55	40951.18
747.74	41178.51
747.92	40560.02
748.11	40938.90
748.29	40723.86
748.48	40609.17
748.66	40621.46
748.85	40850.83
749.03	40697.24
749.22	40744.34
749.41	40244.63
749.59	40687.00
749.78	40342.94
749.96	40052.12
750.15	40367.51
750.33	40869.26
750.52	40596.88
750.70	40326.55
750.89	40027.55
751.07	40134.04
751.26	40334.74
751.44	40195.48
751.63	40103.32
751.81	39931.29
752.00	39832.99
752.18	40244.63
752.37	39912.86
752.55	39800.22
752.74	40156.57
752.92	39865.76
753.10	39513.51
753.29	40086.94
753.47	39605.67
753.66	39161.26
753.84	39556.52
754.03	39439.78
754.21	39478.69
754.40	39290.28
754.58	39701.92
754.77	39359.91
754.95	39249.32
755.14	39132.59
755.32	39538.08
755.51	39306.66
755.69	38872.49
755.88	39144.87
756.06	38890.93
756.24	39114.16
756.43	38870.45
756.61	39349.67
756.80	38897.07
756.98	38745.52
757.17	38653.36
757.35	39042.48
757.54	38669.75
757.72	38804.91
757.90	38741.42
758.09	38688.18
758.27	38446.52
758.46	38370.74
758.64	38716.85
758.83	38718.90
759.01	38653.36
759.19	38340.02
759.38	38540.72
759.56	38530.48
759.75	38284.73
759.93	38180.28
760.12	38221.24
760.30	38170.04
760.48	38192.57
760.67	38243.77
760.85	38223.29
761.04	38481.33
761.22	38319.54
761.40	38051.26
761.59	37703.10
761.77	37897.66
761.96	38366.65
762.14	37819.84
762.32	37811.65
762.51	37563.84
762.69	37463.49
762.88	37950.91
763.06	37612.99
763.24	37686.72
763.43	37875.13
763.61	37721.54
763.80	37774.78
763.98	37203.40
764.16	37520.84
764.35	37133.77
764.53	36918.73
764.72	37078.47
764.90	37424.58
765.08	37375.43
765.27	37023.18
765.45	36916.68
765.63	36535.76
765.82	36953.55
766.00	36404.69
766.18	36931.02
766.37	36908.49
766.55	36955.60
766.74	36687.31
766.92	36734.42
767.10	36572.63
767.29	36554.19
767.47	36728.27
767.65	36634.06
767.84	36081.11
768.02	36302.29
768.20	36242.90
768.39	36488.66
768.57	36230.62
768.75	36480.47
768.94	36300.25
769.12	36038.11
769.30	36167.13
769.49	36165.08
769.67	36007.39
769.85	35433.96
770.04	35831.26
770.22	35558.88
770.40	35309.03
770.59	35235.30
770.77	35890.65
770.95	35472.87
771.14	35343.84
771.32	35421.67
771.50	35562.98
771.69	35288.55
771.87	35669.47
772.05	35388.90
772.24	35319.27
772.42	35120.62
772.60	35196.39
772.78	35048.94
772.97	34936.30
773.15	35239.40
773.33	35001.83
773.52	35177.96
773.70	35003.88
773.88	35003.88
774.07	35104.23
774.25	35087.85
774.43	35407.33
774.61	34903.53
774.80	35339.75
774.98	35370.47
775.16	34891.24
775.34	35407.33
775.53	34731.50
775.71	34616.82
775.89	34690.54
776.08	35032.55
776.26	34960.87
776.44	35143.14
776.62	35223.01
776.81	34969.07
776.99	35122.66
777.17	35173.86
777.35	35122.66
777.54	35585.50
777.72	35165.67
777.90	35251.69
778.08	35358.18
778.27	34885.10
778.45	35460.58
778.63	35605.98
778.81	35106.28
779.00	35546.59
779.18	35503.59
779.36	35479.01
779.54	35237.35
779.73	35534.31
779.91	35229.16
780.09	35386.85
780.27	35241.45
780.46	35069.42
780.64	35515.87
780.82	35603.94
781.00	35390.95
781.19	35313.13
781.37	35655.14
781.55	35419.62
781.73	35683.81
781.91	35411.43
782.10	35558.88
782.28	35345.89
782.46	35735.01
782.64	35845.60
782.82	35268.07
783.01	35976.67
783.19	35468.77
783.37	35593.70
783.55	35413.48
783.74	35509.73
783.92	35194.34
784.10	36005.34
784.28	35018.22
784.46	35390.95
784.64	35171.82
784.83	35233.25
785.01	35395.04
785.19	35263.97
785.37	35407.33
785.55	35358.18
785.74	34852.33
785.92	35182.06
786.10	35458.53
786.28	35149.29
786.46	35003.88
786.64	35245.54
786.83	35194.34
787.01	34997.74
787.19	35243.49
787.37	35112.42
787.55	34790.89
787.74	34680.30
787.92	35151.34
788.10	34672.11
788.28	34971.11
788.46	35204.58
788.64	34670.06
788.82	34573.81
789.01	34622.96
789.19	34571.76
789.37	34393.59
789.55	34618.86
789.73	34491.89
789.91	34473.46
790.09	34223.61
790.28	34059.77
790.46	33666.56
790.64	34399.73
790.82	33953.27
791.00	33867.26
791.18	33920.51
791.36	34170.36
791.55	34280.95
791.73	33443.33
791.91	33478.15
792.09	33734.14
792.27	33840.64
792.45	33433.09
792.63	33539.58
792.81	33656.32
793.00	33295.88
793.18	33259.01
793.36	32986.63
793.54	33242.63
793.72	33152.52
793.90	33064.46
794.08	33052.17
794.26	32867.85
794.44	33037.83
794.62	32554.51
794.81	32679.44
794.99	32409.11
795.17	32284.18
795.35	32505.36
795.53	32468.50
795.71	32437.78
795.89	32261.65
796.07	32185.88
796.25	31911.45
796.43	31893.02
796.61	31612.45
796.80	31807.00
796.98	31618.59
797.16	31553.05
797.34	31536.67
797.52	31866.39
797.70	31643.17
797.88	31505.95
798.06	31258.15
798.24	31356.45
798.42	31319.59
798.60	31139.36
798.78	31112.74
798.96	31110.69
799.14	31235.62
799.32	31096.36
799.51	30766.63
799.69	31036.97
799.87	30862.89
800.05	30131.76
800.23	30961.19
800.41	30402.10
800.59	30869.03
800.77	30408.24
800.95	30295.60
801.13	30252.59
801.31	30105.14
801.49	30170.68
801.67	29707.83
801.85	29812.28
802.03	29767.23
802.21	29756.99
802.39	29818.42
802.57	29828.66
802.75	29756.99
802.93	29558.33
803.11	29701.69
803.29	29656.64
803.47	29322.82
803.65	29535.81
803.83	29208.13
804.01	28991.05
804.19	28718.67
804.37	29132.36
804.55	28902.98
804.73	29027.91
804.91	28911.17
805.09	28800.58
805.27	28616.27
805.45	28925.51
805.63	28581.45
805.81	28466.77
805.99	28501.58
806.17	28442.19
806.35	28411.47
806.53	28020.31
806.71	28227.15
806.89	28167.76
807.07	27969.11
807.25	28231.25
807.43	27944.53
807.61	27844.18
807.79	27819.61
807.97	27631.19
808.15	27516.51
808.33	27602.52
808.51	27725.40
808.69	27434.59
808.87	27577.95
809.05	27457.12
809.23	27385.44
809.41	27237.98
809.59	27197.02
809.77	27145.83
809.95	27405.92
810.13	27231.84
810.31	26760.81
810.49	26791.53
810.67	27125.35
810.84	26732.14
811.02	27190.88
811.20	26545.77
811.38	26795.62
811.56	26582.63
811.74	26519.15
811.92	26547.82
812.10	26402.41
812.28	26885.73
812.46	26338.93
812.64	26461.80
812.82	26404.46
813.00	26211.95
813.18	26068.59
813.36	26220.14
813.53	26222.19
813.71	26011.25
813.89	25960.05
814.07	26136.18
814.25	26273.39
814.43	25773.69
814.61	25665.14
814.79	25591.42
814.97	25882.23
815.15	25722.49
815.33	25175.68
815.50	25650.81
815.68	25706.10
815.86	25513.59
816.04	25423.48
816.22	25499.26
816.40	25267.84
816.58	25329.28
816.76	24995.46
816.94	25398.91
817.11	25022.08
817.29	24931.97
817.47	25151.10
817.65	24981.12
817.83	24766.09
818.01	24979.07
818.19	24796.81
818.37	24680.07
818.54	24419.98
818.72	24567.43
818.90	24743.56
819.08	24589.96
819.26	24575.62
819.44	24549.00
819.62	24278.67
819.80	24688.26
819.97	24579.72
820.15	24356.49
820.33	23965.33
820.51	24243.85
820.69	23983.76
820.87	24360.59
821.05	24256.14
821.22	24016.53
821.40	24293.01
821.58	24147.60
821.76	24145.55
821.94	23688.85
822.12	23846.55
822.29	24209.04
822.47	23746.20
822.65	23940.75
822.83	23778.97
823.01	23830.16
823.19	23635.61
823.36	23637.66
823.54	23492.25
823.72	23606.94
823.90	23688.85
824.08	23234.21
824.25	23396.00
824.43	23144.09
824.61	23240.35
824.79	23113.38
824.97	23334.56
825.15	23295.64
825.32	23322.27
825.50	22841.00
825.68	23137.95
825.86	23242.40
826.04	23080.61
826.21	23031.46
826.39	22894.24
826.57	23129.76
826.75	22871.72
826.93	22748.84
827.10	22470.31
827.28	22714.02
827.46	23021.22
827.64	22820.52
827.81	22494.89
827.99	22587.05
828.17	22648.49
828.35	22476.46
828.53	22208.17
828.70	22062.77
828.88	22609.58
829.06	22601.38
829.24	22406.83
829.41	22427.31
829.59	22541.99
829.77	21984.94
829.95	22318.76
830.12	22128.30
830.30	22519.46
830.48	22329.00
830.66	22384.30
830.84	22460.07
831.01	21757.62
831.19	21866.16
831.37	22113.97
831.55	21855.92
831.72	21757.62
831.90	21986.99
832.08	21909.17
832.25	22034.10
832.43	21835.44
832.61	21378.75
832.79	21599.93
832.96	21638.84
833.14	21561.02
833.32	21667.51
833.50	21759.67
833.67	21520.06
833.85	21503.67
834.03	21442.23
834.20	21716.66
834.38	21546.68
834.56	21724.85
834.74	21171.90
834.91	21270.20
835.09	21190.33
835.27	21176.00
835.44	21143.23
835.62	20842.18
835.80	21038.78
835.98	21233.34
836.15	20977.34
836.33	20979.39
836.51	21372.60
836.68	21165.76
836.86	21186.24
837.04	21003.97
837.21	20979.39
837.39	21006.02
837.57	20803.27
837.75	21034.69
837.92	20565.70
838.10	20846.27
838.28	20661.96
838.45	20743.88
838.63	20494.02
838.81	20862.66
838.98	20723.40
839.16	20432.58
839.34	20557.51
839.51	20504.26
839.69	20342.47
839.87	20506.31
840.04	20270.79
840.22	20674.24
840.40	20506.31
840.57	20039.37
840.75	20416.20
840.93	20221.64
841.10	20152.01
841.28	20313.80
841.46	20000.46
841.63	20129.48
841.81	19762.90
841.98	20168.40
842.16	19945.17
842.34	20121.29
842.51	20010.70
842.69	20053.71
842.87	20176.59
843.04	19818.19
843.22	19896.02
843.40	19926.74
843.57	19795.67
843.75	20119.24
843.92	20000.46
844.10	19846.87
844.28	19822.29
844.45	19654.36
844.63	19902.16
844.81	19603.16
844.98	19707.60
845.16	19582.68
845.33	19748.56
845.51	19515.09
845.69	19367.64
845.86	19347.16
846.04	19222.23
846.21	19420.89
846.39	19259.10
846.57	19304.15
846.74	19404.50
846.92	19404.50
847.09	19224.28
847.27	19021.53
847.45	19390.17
847.62	19132.12
847.80	19183.32
847.97	19054.30
848.15	19447.51
848.32	18863.84
848.50	19089.12
848.68	19072.73
848.85	19072.73
849.03	18802.40
849.20	19236.57
849.38	18931.42
849.56	19015.39
849.73	18718.43
849.91	19044.06
850.08	18898.66
850.26	18847.46
850.43	18630.37
850.61	18638.56
850.78	18554.60
850.96	18548.45
851.14	18439.91
851.31	18673.38
851.49	18421.48
851.66	18597.60
851.84	18634.47
852.01	18398.95
852.19	18661.09
852.36	18323.18
852.54	18480.87
852.71	18663.14
852.89	18468.58
853.07	18398.95
853.24	18622.18
853.42	18448.10
853.59	18327.27
853.77	18261.74
853.94	18177.77
854.12	18362.09
854.29	17942.25
854.47	18081.52
854.64	17964.78
854.82	18335.46
854.99	18065.13
855.17	17964.78
855.34	18155.24
855.52	18110.19
855.69	18097.90
855.87	17917.68
856.04	17946.35
856.22	17897.20
856.39	17895.15
856.57	17745.65
856.74	17671.92
856.92	17886.96
857.09	17850.10
857.27	17743.60
857.44	17719.03
857.62	17796.85
857.79	17733.36
857.97	17737.46
858.14	17641.20
858.32	17626.87
858.49	17374.97
858.67	17356.54
858.84	17299.19
859.02	17700.59
859.19	17450.74
859.37	17436.41
859.54	17401.59
859.72	17452.79
859.89	17250.04
860.06	17571.57
860.24	17301.24
860.41	17551.09
860.59	17075.96
860.76	17264.38
860.94	17051.39
861.11	17458.93
861.29	17051.39
861.46	17053.44
861.64	16815.87
861.81	16875.26
861.98	17043.20
862.16	16858.88
862.33	16705.28
862.51	16920.32
862.68	16930.56
862.86	17067.77
863.03	16854.78
863.21	16848.64
863.38	16738.05
863.55	16604.93
863.73	16828.16
863.90	16893.69
864.08	16934.65
864.25	16674.56
864.43	16725.76
864.60	16672.51
864.77	16400.13
864.95	16484.10
865.12	16375.56
865.30	16537.35
865.47	16451.33
865.64	16285.45
865.82	16447.24
865.99	16576.26
866.17	16416.52
866.34	16262.92
866.51	16060.17
866.69	16375.56
866.86	16193.29
867.04	15904.53
867.21	16244.49
867.38	16164.62
867.56	16056.08
867.73	16150.28
867.91	16158.47
868.08	16181.00
868.25	15859.47
868.43	15750.93
868.60	15841.04
868.78	15556.37
868.95	15845.13
869.12	15888.14
869.30	15738.64
869.47	15691.54
869.64	15595.28
869.82	15623.95
869.99	15515.41
870.16	15714.06
870.34	15699.73
870.51	15800.08
870.69	15535.89
870.86	15365.91
871.03	15456.02
871.21	15230.74
871.38	15626.00
871.55	15406.87
871.73	15441.68
871.90	15234.84
872.07	15269.66
872.25	15118.11
872.42	15101.72
872.59	15351.57
872.77	14972.70
872.94	15060.76
873.11	14987.04
873.29	14982.94
873.46	15017.75
873.63	14968.60
873.81	15091.48
873.98	14702.37
874.15	14849.82
874.33	14782.24
874.50	14425.89
874.67	14745.38
874.85	14630.69
875.02	14651.17
875.19	14522.15
875.37	14571.30
875.54	14778.14
875.71	14591.78
875.88	14413.60
876.06	14618.40
876.23	14339.88
876.40	14229.29
876.58	14300.97
876.75	14425.89
876.92	14343.97
877.10	14628.64
877.27	14262.05
877.44	13983.53
877.61	14169.90
877.79	14096.17
877.96	14028.59
878.13	14292.77
878.31	13961.00
878.48	13963.05
878.65	13967.15
878.82	13975.34
879.00	14184.23
879.17	13827.88
879.34	14004.01
879.51	13911.85
879.69	13948.72
879.86	13784.88
880.03	13563.70
880.21	13604.66
880.38	13713.20
880.55	13563.70
880.72	13752.11
880.90	13895.47
881.07	13758.25
881.24	13817.65
881.41	13745.97
881.59	13406.00
881.76	13594.42
881.93	13727.53
882.10	13344.56
882.28	13430.58
882.45	13604.66
882.62	13551.41
882.79	13623.09
882.96	13178.68
883.14	13410.10
883.31	13539.12
883.48	13399.86
883.65	13299.51
883.83	13506.35
884.00	13434.68
884.17	13244.21
884.34	13236.02
884.51	13115.19
884.69	13160.25
884.86	13061.94
885.03	13317.94
885.20	13238.07
885.38	13207.35
885.55	13188.92
885.72	13119.29
885.89	13141.82
886.06	13219.64
886.24	13047.61
886.41	13027.13
886.58	13326.13
886.75	13184.82
886.92	12957.50
887.10	13143.86
887.27	13037.37
887.44	12857.15
887.61	13199.16
887.78	12943.16
887.95	13055.80
888.13	12844.86
888.30	12949.31
888.47	12887.87
888.64	13174.58
888.81	12842.81
888.99	12930.87
889.16	12613.44
889.33	12666.69
889.50	12844.86
889.67	12726.08
889.84	12586.82
890.01	12709.69
890.19	12554.05
890.36	12586.82
890.53	12576.58
890.70	12306.24
890.87	12605.25
891.04	12457.79
891.22	12603.20
891.39	12504.90
891.56	12408.64
891.73	12289.86
891.90	12396.35
892.07	12420.93
892.24	12199.75
892.42	12218.18
892.59	12379.97
892.76	12187.46
892.93	12263.24
893.10	12351.30
893.27	12205.89
893.44	12240.71
893.61	12078.92
893.79	12371.78
893.96	12226.37
894.13	12261.19
894.30	12279.62
894.47	12027.72
894.64	12201.80
894.81	12330.82
894.98	12310.34
895.15	12181.32
895.33	12037.96
895.50	11999.05
895.67	12339.01
895.84	12123.98
896.01	11902.79
896.18	12070.73
896.35	12013.38
896.52	12013.38
896.69	11988.81
896.86	11992.90
897.04	11945.80
897.21	12142.41
897.38	12033.86
897.55	11923.27
897.72	12029.77
897.89	11890.51
898.06	11970.38
898.23	12062.54
898.40	11970.38
898.57	11997.00
898.74	11947.85
898.91	11960.14
899.08	12035.91
899.26	12107.59
899.43	11898.70
899.60	11810.64
899.77	12097.35
899.94	11906.89
900.11	12044.10
900.28	12011.34
900.45	11775.82
900.62	11722.57
900.79	11956.04
900.96	11904.84
901.13	11878.22
901.30	12101.45
901.47	11814.73
901.64	11886.41
901.81	11751.24
901.98	11945.80
902.15	11792.20
902.32	11761.48
902.49	11972.43
902.66	11757.39
902.83	11706.19
903.01	11798.35
903.18	11784.01
903.35	11824.97
903.52	11607.89
903.69	11827.02
903.86	11786.06
904.03	11747.15
904.20	11681.61
904.37	11824.97
904.54	11888.46
904.71	11558.74
904.88	11802.44
905.05	11769.68
905.22	11798.35
905.39	11671.37
905.56	11628.37
905.73	11779.92
905.90	11728.72
906.07	11605.84
906.24	11771.72
906.41	11714.38
906.58	11874.12
906.75	11814.73
906.92	11603.79
907.09	11515.73
907.26	11581.26
907.43	11528.02
907.60	11417.43
907.77	11749.20
907.93	11833.16
908.10	11620.17
908.27	11689.81
908.44	11470.67
908.61	11771.72
908.78	11501.39
908.95	11571.02
909.12	11497.30
909.29	11525.97
909.46	11548.50
909.63	11654.99
909.80	11509.58
909.97	11679.57
910.14	11536.21
910.31	11427.67
910.48	11454.29
910.65	11546.45
910.82	11485.01
910.99	11398.99
911.16	11421.52
911.33	11370.32
911.50	11249.49
911.66	11276.12
911.83	11497.30
912.00	11243.35
912.17	11106.13
912.34	11290.45
912.51	11376.47
912.68	11091.80
912.85	11411.28
913.02	11108.18
913.19	11059.03
913.36	11069.27
913.53	11165.53
913.70	10977.11
913.86	11229.01
914.03	11087.70
914.20	10960.73
914.37	10987.35
914.54	10895.19
914.71	11110.23
914.88	11095.89
915.05	11085.65
915.22	10956.63
915.39	10950.49
915.55	10854.23
915.72	10753.88
915.89	10760.03
916.06	10661.73
916.23	10780.51
916.40	10714.97
916.57	10835.80
916.74	10770.27
916.91	10610.53
917.07	10678.11
917.24	10778.46
917.41	10540.90
917.58	10645.34
917.75	10481.50
917.92	10381.15
918.09	10397.54
918.26	10485.60
918.42	10407.78
918.59	10389.35
918.76	10233.70
918.93	10278.76
919.10	10348.39
919.27	9961.32
919.44	10243.94
919.60	10125.16
919.77	10168.16
919.94	10387.30
920.11	10162.02
920.28	9977.70
920.45	10231.65
920.61	9885.55
920.78	10022.76
920.95	9789.29
921.12	9867.11
921.29	9779.05
921.46	9946.98
921.62	9705.32
921.79	9652.08
921.96	9715.56
922.13	9537.39
922.30	9658.22
922.47	9701.23
922.63	9549.68
922.80	9529.20
922.97	9430.90
923.14	9490.29
923.31	9551.73
923.47	9326.45
923.64	9559.92
923.81	9457.52
923.98	9420.66
924.15	9363.31
924.32	9201.52
924.48	9201.52
924.65	9369.46
924.82	9236.34
924.99	9109.36
925.15	9023.35
925.32	9160.56
925.49	9095.03
925.66	9066.36
925.83	8963.96
925.99	8847.22
926.16	8961.91
926.33	8798.07
926.50	8793.98
926.67	8773.50
926.83	8791.93
927.00	8740.73
927.17	8804.22
927.34	8468.35
927.50	8722.30
927.67	8587.13
927.84	8611.71
928.01	8671.10
928.17	8497.02
928.34	8503.17
928.51	8386.43
928.68	8218.50
928.84	8324.99
929.01	8279.94
929.18	8310.66
929.35	8353.66
929.51	8331.14
929.68	8122.24
929.85	8142.72
930.02	8148.87
930.18	8116.10
930.35	8193.92
930.52	8044.42
930.69	8245.12
930.85	7935.88
931.02	7778.19
931.19	7894.92
931.36	7860.10
931.52	7929.74
931.69	7823.24
931.86	7772.04
932.02	7735.18
932.19	7751.56
932.36	7722.89
932.53	7751.56
932.69	7548.81
932.86	7688.07
933.03	7593.87
933.19	7458.70
933.36	7475.09
933.53	7454.61
933.70	7352.21
933.86	7231.38
934.03	7409.55
934.20	7323.54
934.36	7354.26
934.53	7124.88
934.70	7227.28
934.86	7122.84
935.03	6897.56
935.20	7034.77
935.36	6887.32
935.53	6885.27
935.70	6881.18
935.86	6883.22
936.03	6694.81
936.20	6727.58
936.36	6549.40
936.53	6614.94
936.70	6414.24
936.86	6588.32
937.03	6379.42
937.20	6277.02
937.36	6459.29
937.53	6180.77
937.70	6229.92
937.86	6107.04
938.03	6037.41
938.20	6107.04
938.36	5961.64
938.53	5889.96
938.70	5812.14
938.86	5789.61
939.03	5715.88
939.20	5636.01
939.36	5726.12
939.53	5560.24
939.70	5556.14
939.86	5529.52
940.03	5283.76
940.19	5289.90
940.36	5265.33
940.53	5246.90
940.69	5222.32
940.86	5226.42
941.03	5142.45
941.19	5040.05
941.36	5040.05
941.52	4923.32
941.69	4904.89
941.86	4978.61
942.02	4841.40
942.19	4792.25
942.35	4663.22
942.52	4718.52
942.69	4640.70
942.85	4655.03
943.02	4671.42
943.18	4569.02
943.35	4734.90
943.52	4609.98
943.68	4509.63
943.85	4540.35
944.01	4419.52
944.18	4464.57
944.35	4366.27
944.51	4458.43
944.68	4466.62
944.84	4282.30
945.01	4368.32
945.17	4351.93
945.34	4396.99
945.51	4329.41
945.67	4362.17
945.84	4306.88
946.00	4284.35
946.17	4231.10
946.33	4239.30
946.50	4220.86
946.67	4132.80
946.83	4220.86
947.00	4235.20
947.16	4220.86
947.33	4161.47
947.49	4132.80
947.66	4206.53
947.82	4161.47
947.99	4177.86
948.16	4114.37
948.32	4229.06
948.49	4179.90
948.65	4267.97
948.82	4198.34
948.98	4200.38
949.15	4091.84
949.31	4212.67
949.48	4194.24
949.64	4120.51
949.81	4081.60
949.97	4188.10
950.14	4034.50
950.30	4194.24
950.47	4263.87
950.63	4126.66
950.80	4247.49
950.96	4220.86
951.13	4110.27
951.30	4253.63
951.46	4235.20
951.63	4224.96
951.79	4282.30
951.96	4245.44
952.12	4140.99
952.29	4290.49
952.45	4085.70
952.62	4179.90
952.78	4212.67
952.94	4184.00
953.11	4327.36
953.27	4218.82
953.44	4237.25
953.60	4140.99
953.77	4206.53
953.93	4188.10
954.10	4294.59
954.26	4251.58
954.43	4200.38
954.59	4282.30
954.76	4353.98
954.92	4274.11
955.09	4235.20
955.25	4198.34
955.42	4302.78
955.58	4294.59
955.75	4272.06
955.91	4198.34
956.07	4315.07
956.24	4214.72
956.40	4292.54
956.57	4327.36
956.73	4235.20
956.90	4274.11
957.06	4306.88
957.23	4140.99
957.39	4286.40
957.56	4239.30
957.72	4331.45
957.88	4272.06
958.05	4288.45
958.21	4274.11
958.38	4358.08
958.54	4286.40
958.71	4345.79
958.87	4282.30
959.03	4235.20
959.20	4276.16
959.36	4345.79
959.53	4386.75
959.69	4276.16
959.85	4390.84
960.02	4286.40
960.18	4329.41
960.35	4300.73
960.51	4403.13
960.68	4184.00
960.84	4353.98
961.00	4245.44
961.17	4265.92
961.33	4360.13
961.50	4288.45
961.66	4419.52
961.82	4081.60
961.99	4175.81
962.15	4181.95
962.31	4245.44
962.48	4100.03
962.64	4370.37
962.81	4239.30
962.97	4270.01
963.13	4124.61
963.30	4138.94
963.46	4231.10
963.62	4280.25
963.79	4153.28
963.95	4093.89
964.12	4202.43
964.28	4085.70
964.44	4265.92
964.61	4233.15
964.77	4159.42
964.93	4261.82
965.10	4165.57
965.26	4280.25
965.42	4235.20
965.59	4095.94
965.75	4065.22
965.92	4302.78
966.08	4208.58
966.24	4110.27
966.41	4181.95
966.57	4186.05
966.73	4110.27
966.90	4171.71
967.06	4122.56
967.22	4077.51
967.39	4032.45
967.55	3995.59
967.71	4130.75
967.88	4065.22
968.04	3993.54
968.20	3983.30
968.37	4071.36
968.53	4110.27
968.69	4097.99
968.85	3946.44
969.02	4040.64
969.18	4122.56
969.34	4030.40
969.51	4063.17
969.67	4026.31
969.83	3985.35
970.00	4067.27
970.16	3989.44
970.32	4151.23
970.48	4001.73
970.65	3796.93
970.81	3968.96
970.97	3932.10
971.14	3934.15
971.30	3928.00
971.46	3827.65
971.63	3905.48
971.79	3930.05
971.95	3999.68
972.11	3889.09
972.28	3747.78
972.44	3948.48
972.60	3833.80
972.76	4016.07
972.93	3862.47
973.09	3952.58
973.25	3899.33
973.42	3772.36
973.58	3815.37
973.74	3948.48
973.90	3862.47
974.07	3852.23
974.23	3772.36
974.39	3747.78
974.55	3727.30
974.72	3801.03
974.88	3893.19
975.04	3762.12
975.20	3833.80
975.37	3735.50
975.53	3669.96
975.69	3813.32
975.85	3682.25
976.01	3796.93
976.18	3631.05
976.34	3682.25
976.50	3626.95
976.66	3725.26
976.83	3715.02
976.99	3712.97
977.15	3588.04
977.31	3618.76
977.47	3676.10
977.64	3723.21
977.80	3610.57
977.96	3616.71
978.12	3592.14
978.29	3741.64
978.45	3516.36
978.61	3620.81
978.77	3678.15
978.93	3598.28
979.10	3616.71
979.26	3637.19
979.42	3577.80
979.58	3614.66
979.74	3485.64
979.91	3536.84
980.07	3502.03
980.23	3585.99
980.39	3508.17
980.55	3399.63
980.71	3508.17
980.88	3436.49
981.04	3547.08
981.20	3424.20
981.36	3538.89
981.52	3489.74
981.68	3450.83
981.85	3405.77
982.01	3475.40
982.17	3495.88
982.33	3442.64
982.49	3495.88
982.65	3350.48
982.82	3319.76
982.98	3295.18
983.14	3360.72
983.30	3358.67
983.46	3370.96
983.62	3420.11
983.79	3274.70
983.95	3307.47
984.11	3246.03
984.27	3315.66
984.43	3352.52
984.59	3299.28
984.75	3325.90
984.91	3262.41
985.08	3286.99
985.24	3268.56
985.40	3217.36
985.56	3276.75
985.72	3295.18
985.88	3233.74
986.04	3178.45
986.20	3143.63
986.37	3278.80
986.53	3248.08
986.69	3280.85
986.85	3241.93
987.01	3178.45
987.17	3225.55
987.33	3125.20
987.49	3086.29
987.65	3282.89
987.82	3164.11
987.98	3153.87
988.14	3211.22
988.30	3123.15
988.46	3141.58
988.62	3112.91
988.78	3104.72
988.94	3102.67
989.10	3033.04
989.26	2951.12
989.42	3055.57
989.59	2971.60
989.75	2965.46
989.91	2973.65
990.07	3028.95
990.23	3059.67
990.39	3014.61
990.55	3037.14
990.71	3090.38
990.87	3022.80
991.03	3168.21
991.19	2942.93
991.35	3045.33
991.51	3092.43
991.67	2918.36
991.83	3002.32
992.00	3080.14
992.16	3117.01
992.32	2969.55
992.48	2938.84
992.64	2969.55
992.80	2940.88
992.96	2873.30
993.12	3004.37
993.28	2906.07
993.44	2863.06
993.60	2899.92
993.76	2906.07
993.92	2871.25
994.08	2887.64
994.24	2877.40
994.40	2834.39
994.56	2934.74
994.72	2924.50
994.88	2854.87
995.04	2875.35
995.20	2936.79
995.36	2826.20
995.52	2953.17
995.68	2887.64
995.84	2840.53
996.00	2813.91
996.16	2795.48
996.32	2906.07
996.48	2797.53
996.64	2826.20
996.80	2768.85
996.96	2752.47
997.12	2842.58
997.28	2725.85
997.44	2828.24
997.60	2779.09
997.76	2693.08
997.92	2662.36
998.08	2705.37
998.24	2744.28
998.40	2783.19
998.56	2781.14
998.72	2580.44
998.88	2762.71
999.04	2703.32
999.20	2672.60
999.36	2674.65
999.52	2789.33
999.68	2723.80
999.84	2723.80
1000.00	2682.84
1000.16	2676.70
1000.32	2680.79
1000.48	2656.22
1000.64	2490.33
1000.80	2557.91
1000.95	2605.02
1001.11	2674.65
1001.27	2564.06
1001.43	2672.60
1001.59	2574.30
1001.75	2586.58
1001.91	2488.28
1002.07	2555.86
1002.23	2500.57
1002.39	2568.15
1002.55	2441.18
1002.71	2627.54
1002.87	2568.15
1003.03	2576.34
1003.19	2549.72
1003.34	2605.02
1003.50	2519.00
1003.66	2514.91
1003.82	2447.32
1003.98	2428.89
1004.14	2588.63
1004.30	2498.52
1004.46	2527.19
1004.62	2449.37
1004.78	2613.21
1004.94	2402.27
1005.09	2473.95
1005.25	2463.71
1005.41	2459.61
1005.57	2486.23
1005.73	2367.45
1005.89	2383.84
1006.05	2516.95
1006.21	2363.36
1006.37	2400.22
1006.52	2385.88
1006.68	2426.84
1006.84	2568.15
1007.00	2426.84
1007.16	2439.13
1007.32	2394.08
1007.48	2353.12
1007.64	2437.08
1007.79	2351.07
1007.95	2389.98
1008.11	2340.83
1008.27	2379.74
1008.43	2373.60
1008.59	2361.31
1008.75	2406.36
1008.91	2379.74
1009.06	2355.16
1009.22	2404.32
1009.38	2260.96
1009.54	2340.83
1009.70	2265.05
1009.86	2375.64
1010.01	2383.84
1010.17	2277.34
1010.33	2338.78
1010.49	2256.86
1010.65	2318.30
1010.81	2242.53
1010.96	2211.81
1011.12	2213.85
1011.28	2252.77
1011.44	2392.03
1011.60	2258.91
1011.76	2293.72
1011.91	2297.82
1012.07	2146.27
1012.23	2213.85
1012.39	2293.72
1012.55	2213.85
1012.71	2234.33
1012.86	2250.72
1013.02	2211.81
1013.18	2140.13
1013.34	2220.00
1013.50	2185.18
1013.65	2246.62
1013.81	2209.76
1013.97	2234.33
1014.13	2187.23
1014.29	2201.57
1014.44	2263.01
1014.60	2181.09
1014.76	2244.57
1014.92	2131.94
1015.07	2088.93
1015.23	2238.43
1015.39	2127.84
1015.55	2080.74
1015.71	2148.32
1015.86	2095.07
1016.02	2133.98
1016.18	2105.31
1016.34	2121.70
1016.49	2142.18
1016.65	2133.98
1016.81	2131.94
1016.97	2125.79
1017.12	2062.30
1017.28	2025.44
1017.44	2066.40
1017.60	2101.22
1017.75	2140.13
1017.91	2101.22
1018.07	2041.82
1018.23	2123.74
1018.38	2043.87
1018.54	2138.08
1018.70	2101.22
1018.86	1974.24
1019.01	2011.11
1019.17	2058.21
1019.33	2060.26
1019.49	2013.15
1019.64	2052.06
1019.80	2002.91
1019.96	2084.83
1020.12	2052.06
1020.27	2058.21
1020.43	2060.26
1020.59	2013.15
1020.74	2058.21
1020.90	1957.86
1021.06	2007.01
1021.22	1968.10
1021.37	1970.15
1021.53	1982.43
1021.69	1976.29
1021.84	1986.53
1022.00	1974.24
1022.16	1964.00
1022.31	1908.71
1022.47	1947.62
1022.63	1927.14
1022.79	1943.52
1022.94	1972.19
1023.10	2000.87
1023.26	1914.85
1023.41	1933.28
1023.57	1970.15
1023.73	2017.25
1023.88	1974.24
1024.04	1957.86
1024.20	1916.90
1024.35	1935.33
1024.51	1947.62
1024.67	1964.00
1024.82	1990.63
1024.98	1857.51
1025.14	1871.84
1025.29	1837.03
1025.45	1984.48
1025.61	1904.61
1025.76	1990.63
1025.92	1886.18
1026.08	1892.32
1026.23	1949.67
1026.39	1927.14
1026.55	1923.04
1026.70	1886.18
1026.86	1888.23
1027.02	1894.37
1027.17	1859.56
1027.33	1935.33
1027.48	1890.28
1027.64	1789.92
1027.80	1873.89
1027.95	1865.70
1028.11	1810.40
1028.27	1863.65
1028.42	1912.80
1028.58	1904.61
1028.73	1861.60
1028.89	1781.73
1029.05	1935.33
1029.20	1927.14
>>>>>End Processed Spectral Data<<<<<
