SpectraSuite Data File
++++++++++++++++++++++++++++++++++++
Date: Tue Jun 13 12:02:25 CEST 2017
User: INFO_000
Dark Spectrum Present: No
Reference Spectrum Present: No
Number of Sampled Component Spectra: 1
Spectrometers: USB4H00879
Integration Time (usec): 30000 (USB4H00879)
Spectra Averaged: 1 (USB4H00879)
Boxcar Smoothing: 0 (USB4H00879)
Correct for Electrical Dark: No (USB4H00879)
Strobe/Lamp Enabled: No (USB4H00879)
Correct for Detector Non-linearity: No (USB4H00879)
Correct for Stray Light: No (USB4H00879)
Number of Pixels in Processed Spectrum: 3648
>>>>>Begin Processed Spectral Data<<<<<
345.13	1366.00
345.34	1366.00
345.56	1366.00
345.78	1359.85
345.99	1302.51
346.21	1531.88
346.42	1535.98
346.64	1505.26
346.86	1599.46
347.07	1546.22
347.29	1447.91
347.50	1462.25
347.72	1531.88
347.94	1578.98
348.15	1427.43
348.37	1454.06
348.59	1540.07
348.80	1456.11
349.02	1566.70
349.23	1673.19
349.45	1619.94
349.67	1556.46
349.88	1658.85
350.10	1705.96
350.31	1662.95
350.53	1587.18
350.75	1581.03
350.96	1521.64
351.18	1615.85
351.39	1660.90
351.61	1626.09
351.82	1669.09
352.04	1646.57
352.26	1574.89
352.47	1652.71
352.69	1669.09
352.90	1574.89
353.12	1593.32
353.34	1624.04
353.55	1669.09
353.77	1687.53
353.98	1599.46
354.20	1562.60
354.41	1689.57
354.63	1685.48
354.85	1650.66
355.06	1542.12
355.28	1583.08
355.49	1558.50
355.71	1646.57
355.92	1691.62
356.14	1646.57
356.35	1619.94
356.57	1599.46
356.79	1660.90
357.00	1581.03
357.22	1615.85
357.43	1621.99
357.65	1685.48
357.86	1570.79
358.08	1660.90
358.29	1628.14
358.51	1652.71
358.72	1691.62
358.94	1634.28
359.16	1673.19
359.37	1652.71
359.59	1626.09
359.80	1673.19
360.02	1646.57
360.23	1708.01
360.45	1748.97
360.66	1652.71
360.88	1650.66
361.09	1593.32
361.31	1628.14
361.52	1685.48
361.74	1728.49
361.95	1769.44
362.17	1662.95
362.38	1761.25
362.60	1644.52
362.81	1658.85
363.03	1650.66
363.24	1611.75
363.46	1755.11
363.67	1726.44
363.89	1738.73
364.10	1710.05
364.32	1665.00
364.53	1699.81
364.75	1685.48
364.96	1685.48
365.18	1796.07
365.39	1693.67
365.61	1667.05
365.82	1726.44
366.04	1693.67
366.25	1712.10
366.47	1681.38
366.68	1716.20
366.90	1689.57
367.11	1708.01
367.33	1726.44
367.54	1712.10
367.76	1662.95
367.97	1755.11
368.19	1812.45
368.40	1820.64
368.62	1685.48
368.83	1734.63
369.05	1820.64
369.26	1787.88
369.48	1740.77
369.69	1638.38
369.91	1779.68
370.12	1740.77
370.33	1763.30
370.55	1660.90
370.76	1710.05
370.98	1705.96
371.19	1734.63
371.41	1710.05
371.62	1734.63
371.84	1761.25
372.05	1751.01
372.27	1794.02
372.48	1701.86
372.69	1728.49
372.91	1759.21
373.12	1837.03
373.34	1798.12
373.55	1802.21
373.77	1777.64
373.98	1744.87
374.20	1779.68
374.41	1880.04
374.62	1834.98
374.84	1767.40
375.05	1818.60
375.27	1804.26
375.48	1802.21
375.70	1837.03
375.91	1843.17
376.12	1843.17
376.34	1726.44
376.55	1839.08
376.77	1865.70
376.98	1904.61
377.19	1751.01
377.41	1769.44
377.62	1845.22
377.84	1888.23
378.05	1849.32
378.27	1853.41
378.48	1820.64
378.69	1935.33
378.91	1882.08
379.12	1875.94
379.34	1882.08
379.55	1894.37
379.76	1867.75
379.98	1873.89
380.19	1892.32
380.41	1890.28
380.62	1882.08
380.83	1892.32
381.05	1873.89
381.26	1968.10
381.47	1812.45
381.69	1923.04
381.90	1945.57
382.12	2007.01
382.33	1990.63
382.54	1896.42
382.76	1949.67
382.97	1916.90
383.19	1871.84
383.40	1884.13
383.61	1939.43
383.83	1961.95
384.04	1929.19
384.25	1947.62
384.47	1918.95
384.68	1906.66
384.89	1959.91
385.11	1961.95
385.32	1947.62
385.54	2011.11
385.75	1972.19
385.96	1949.67
386.18	2017.25
386.39	2011.11
386.60	1978.34
386.82	1988.58
387.03	1964.00
387.24	1986.53
387.46	1984.48
387.67	2142.18
387.88	2101.22
388.10	1955.81
388.31	2019.30
388.52	2080.74
388.74	2107.36
388.95	2058.21
389.16	2043.87
389.38	2021.35
389.59	2109.41
389.80	2105.31
390.02	2066.40
390.23	2176.99
390.44	2172.89
390.66	2123.74
390.87	2045.92
391.08	2119.65
391.30	2164.70
391.51	2183.13
391.72	2193.37
391.94	2109.41
392.15	2146.27
392.36	2156.51
392.58	2125.79
392.79	2228.19
393.00	2174.94
393.22	2269.15
393.43	2240.48
393.64	2181.09
393.85	2275.29
394.07	2121.70
394.28	2242.53
394.49	2285.53
394.71	2318.30
394.92	2258.91
395.13	2332.64
395.35	2121.70
395.56	2244.57
395.77	2283.49
395.98	2279.39
396.20	2332.64
396.41	2217.95
396.62	2326.49
396.84	2340.83
397.05	2349.02
397.26	2338.78
397.47	2400.22
397.69	2260.96
397.90	2387.93
398.11	2363.36
398.32	2326.49
398.54	2344.92
398.75	2367.45
398.96	2385.88
399.18	2502.62
399.39	2359.26
399.60	2500.57
399.81	2482.14
400.03	2394.08
400.24	2543.58
400.45	2322.40
400.66	2557.91
400.88	2475.99
401.09	2453.47
401.30	2564.06
401.51	2562.01
401.73	2578.39
401.94	2582.49
402.15	2488.28
402.36	2521.05
402.58	2562.01
402.79	2551.77
403.00	2613.21
403.21	2516.95
403.43	2607.06
403.64	2658.26
403.85	2465.75
404.06	2645.98
404.27	2686.94
404.49	2629.59
404.70	2641.88
404.91	2611.16
405.12	2660.31
405.34	2623.45
405.55	2783.19
405.76	2617.30
405.97	2654.17
406.19	2803.67
406.40	2703.32
406.61	2701.27
406.82	2750.42
407.03	2736.09
407.25	2793.43
407.46	2777.05
407.67	2680.79
407.88	2846.68
408.09	2678.74
408.31	2766.81
408.52	2744.28
408.73	2777.05
408.94	2764.76
409.15	2764.76
409.37	2873.30
409.58	2957.27
409.79	2906.07
410.00	2869.20
410.21	2752.47
410.43	2889.68
410.64	2824.15
410.85	2899.92
411.06	2912.21
411.27	2844.63
411.48	2867.16
411.70	2908.12
411.91	2979.79
412.12	2924.50
412.33	2830.29
412.54	2951.12
412.76	3088.34
412.97	2990.03
413.18	3014.61
413.39	3067.86
413.60	2951.12
413.81	3096.53
414.03	2965.46
414.24	2926.55
414.45	3041.23
414.66	2928.60
414.87	3135.44
415.08	3125.20
415.30	3006.42
415.51	3098.58
415.72	3080.14
415.93	3051.47
416.14	3098.58
416.35	3160.02
416.56	3215.31
416.78	3194.83
416.99	3260.37
417.20	3174.35
417.41	3119.06
417.62	3192.78
417.83	3303.37
418.04	3272.65
418.26	3221.45
418.47	3264.46
418.68	3327.95
418.89	3198.93
419.10	3323.85
419.31	3239.89
419.52	3330.00
419.73	3295.18
419.95	3346.38
420.16	3276.75
420.37	3301.33
420.58	3420.11
420.79	3229.65
421.00	3405.77
421.21	3428.30
421.42	3268.56
421.63	3454.92
421.85	3424.20
422.06	3512.27
422.27	3467.21
422.48	3557.32
422.69	3573.71
422.90	3612.62
423.11	3502.03
423.32	3540.94
423.53	3596.23
423.75	3614.66
423.96	3598.28
424.17	3663.82
424.38	3612.62
424.59	3696.58
424.80	3747.78
425.01	3641.29
425.22	3657.67
425.43	3667.91
425.64	3753.93
425.85	3731.40
426.06	3772.36
426.28	3696.58
426.49	3778.50
426.70	3835.85
426.91	3778.50
427.12	3811.27
427.33	3792.84
427.54	3817.41
427.75	3882.95
427.96	3962.82
428.17	3946.44
428.38	3952.58
428.59	3993.54
428.80	3991.49
429.01	3930.05
429.23	3872.71
429.44	4257.73
429.65	4089.79
429.86	4003.78
430.07	4040.64
430.28	3975.11
430.49	4110.27
430.70	4237.25
430.91	4274.11
431.12	4208.58
431.33	4177.86
431.54	4255.68
431.75	4347.84
431.96	4247.49
432.17	4255.68
432.38	4278.21
432.59	4454.33
432.80	4345.79
433.01	4386.75
433.22	4454.33
433.43	4353.98
433.64	4458.43
433.85	4386.75
434.06	4509.63
434.27	4403.13
434.49	4503.48
434.70	4474.81
434.91	4480.96
435.12	4429.76
435.33	4546.49
435.54	4519.87
435.75	4429.76
435.96	4552.63
436.17	4472.76
436.38	4745.14
436.59	4614.07
436.80	4646.84
437.01	4769.72
437.22	4841.40
437.43	4698.04
437.64	4595.64
437.85	4716.47
438.06	4714.42
438.27	4724.66
438.48	4755.38
438.69	4931.51
438.90	4730.81
439.11	4716.47
439.32	4812.73
439.53	4880.31
439.74	4902.84
439.95	4997.04
440.16	4894.65
440.37	4972.47
440.57	4878.26
440.78	4982.71
440.99	4990.90
441.20	4913.08
441.41	4943.80
441.62	5062.58
441.83	4988.85
442.04	5066.67
442.25	5033.91
442.46	5078.96
442.67	5054.39
442.88	5361.58
443.09	5031.86
443.30	5171.12
443.51	5181.36
443.72	5265.33
443.93	5185.46
444.14	5334.96
444.35	5193.65
444.56	5373.87
444.77	5216.18
444.98	5203.89
445.19	5341.10
445.40	5298.10
445.61	5302.19
445.81	5500.84
446.02	5453.74
446.23	5406.64
446.44	5322.67
446.65	5400.49
446.86	5228.46
447.07	5484.46
447.28	5552.04
447.49	5674.92
447.70	5449.64
447.91	5590.95
448.12	5453.74
448.33	5638.06
448.54	5683.11
448.74	5560.24
448.95	5623.72
449.16	5519.28
449.37	5834.66
449.58	5533.61
449.79	5984.16
450.00	5574.57
450.21	5750.70
450.42	5932.97
450.63	5920.68
450.84	5859.24
451.05	5769.13
451.25	5871.53
451.46	5957.54
451.67	5957.54
451.88	6117.28
452.09	6088.61
452.30	6035.36
452.51	6027.17
452.72	6117.28
452.93	6301.60
453.13	6088.61
453.34	5904.29
453.55	6084.52
453.76	6209.44
453.97	6358.94
454.18	6213.54
454.39	6277.02
454.60	6281.12
454.81	6328.22
455.01	6344.61
455.22	6234.02
455.43	6494.11
455.64	6438.81
455.85	6467.49
456.06	6686.62
456.27	6391.71
456.48	6457.25
456.68	6596.51
456.89	6743.96
457.10	6842.26
457.31	6727.58
457.52	6688.67
457.73	6838.17
457.94	6961.05
458.14	6748.06
458.35	7032.72
458.56	7036.82
458.77	6766.49
458.98	7067.54
459.19	6936.47
459.39	7042.96
459.60	7143.32
459.81	6926.23
460.02	7243.67
460.23	7094.16
460.44	7337.87
460.65	7341.97
460.85	7522.19
461.06	7317.39
461.27	7083.92
461.48	7557.00
461.69	7475.09
461.89	7239.57
462.10	7661.45
462.31	7329.68
462.52	7511.95
462.73	7485.33
462.94	7806.86
463.14	7782.28
463.35	7817.10
463.56	7982.98
463.77	7935.88
463.98	7798.66
464.18	7815.05
464.39	7894.92
464.60	8085.38
464.81	8208.26
465.02	8028.04
465.23	8230.79
465.43	7931.78
465.64	8312.71
465.85	8155.01
466.06	8069.00
466.27	8427.39
466.47	8441.73
466.68	8423.30
466.89	8388.48
467.10	8558.46
467.30	8214.40
467.51	8644.48
467.72	8640.38
467.93	8658.81
468.14	8806.27
468.34	8699.77
468.55	8980.34
468.76	8802.17
468.97	8879.99
469.17	8839.03
469.38	9211.76
469.59	9058.17
469.80	9086.84
470.01	9119.60
470.21	9183.09
470.42	9396.08
470.63	9408.37
470.84	9232.24
471.04	9559.92
471.25	9645.93
471.46	9342.83
471.67	9557.87
471.87	9600.88
472.08	9721.71
472.29	9871.21
472.50	9803.63
472.70	9942.89
472.91	9736.04
473.12	9863.02
473.33	10104.68
473.53	10088.29
473.74	10215.27
473.95	10235.75
474.16	10405.73
474.36	10458.98
474.57	10516.32
474.78	10641.25
474.99	10512.22
475.19	10757.98
475.40	11038.55
475.61	10805.08
475.81	10860.38
476.02	11106.13
476.23	10960.73
476.44	11163.48
476.64	11413.33
476.85	11337.56
477.06	11323.22
477.27	11460.43
477.47	11650.89
477.68	11712.33
477.89	11714.38
478.09	11700.05
478.30	11908.94
478.51	11941.71
478.71	12037.96
478.92	11931.47
479.13	11831.12
479.34	12435.27
479.54	12279.62
479.75	12244.81
479.96	12545.86
480.16	12255.04
480.37	12488.51
480.58	12898.11
480.78	12638.02
480.99	12623.68
481.20	12984.12
481.41	13098.81
481.61	13051.70
481.82	13217.59
482.03	12951.35
482.23	13068.09
482.44	13604.66
482.65	13543.22
482.85	13424.44
483.06	13481.78
483.27	13565.74
483.47	13643.57
483.68	13530.93
483.89	13922.09
484.09	13956.91
484.30	14018.35
484.51	13999.91
484.71	14182.18
484.92	14212.90
485.13	14245.67
485.33	14444.32
485.54	14475.04
485.75	14683.94
485.95	14583.59
486.16	14989.08
486.37	14800.67
486.57	14999.32
486.78	14755.61
486.98	15005.47
487.19	15261.46
487.40	15210.26
487.60	15111.96
487.81	15261.46
488.02	15494.93
488.22	15433.49
488.43	15515.41
488.64	15707.92
488.84	15828.75
489.05	15664.91
489.25	15859.47
489.46	15851.28
489.67	15998.73
489.87	16064.27
490.08	16275.21
490.29	16056.08
490.49	16563.97
490.70	16281.35
490.90	16445.19
491.11	16490.24
491.32	16465.67
491.52	16590.59
491.73	16803.58
491.94	16910.08
492.14	16934.65
492.35	16926.46
492.55	16838.40
492.76	17024.76
492.97	17561.33
493.17	17198.84
493.38	17346.30
493.58	17751.79
493.79	17528.56
494.00	17651.44
494.20	17551.09
494.41	17690.35
494.61	17817.33
494.82	17850.10
495.02	17923.82
495.23	17884.91
495.44	17956.59
495.64	18259.69
495.85	18245.35
496.05	18274.03
496.26	18310.89
496.47	18417.38
496.67	18292.46
496.88	18546.40
497.08	18644.71
497.29	18894.56
497.49	18671.33
497.70	18755.30
497.91	18779.87
498.11	18820.83
498.32	18908.90
498.52	19338.97
498.73	19306.20
498.93	19261.15
499.14	19353.30
499.34	19324.63
499.55	19447.51
499.76	19388.12
499.96	19627.73
500.17	19527.38
500.37	19621.59
500.58	19832.53
500.78	19822.29
500.99	19601.11
501.19	20219.60
501.40	20012.75
501.60	19891.92
501.81	19914.45
502.02	19969.74
502.22	20121.29
502.43	20672.20
502.63	20297.42
502.84	20489.93
503.04	20244.17
503.25	20358.86
503.45	20350.67
503.66	20930.24
503.86	20631.24
504.07	20936.38
504.27	20799.17
504.48	20958.91
504.68	20899.52
504.89	20960.96
505.09	20934.34
505.30	21120.70
505.50	20719.30
505.71	21415.61
505.91	21335.74
506.12	21264.06
506.32	21266.11
506.53	21448.38
506.73	21315.26
506.94	21690.04
507.14	21509.82
507.35	21700.28
507.55	21321.40
507.76	21876.40
507.96	21683.89
508.17	21872.31
508.37	21796.53
508.58	21874.35
508.78	21898.93
508.99	22206.13
509.19	21958.32
509.40	22359.72
509.60	22081.20
509.81	22242.99
510.01	22138.54
510.22	22068.91
510.42	22251.18
510.63	22312.62
510.83	22507.18
511.04	22210.22
511.24	22623.91
511.44	22503.08
511.65	22601.38
511.85	22664.87
512.06	22677.16
512.26	22787.75
512.47	22943.39
512.67	23328.41
512.88	22591.14
513.08	22832.80
513.29	23019.17
513.49	23092.90
513.69	23031.46
513.90	23017.12
514.10	23094.94
514.31	23242.40
514.51	23400.09
514.72	23193.25
514.92	23369.37
515.13	23131.81
515.33	23439.00
515.53	23422.62
515.74	23400.09
515.94	23453.34
516.15	23756.44
516.35	23688.85
516.56	23783.06
516.76	23660.18
516.96	23713.43
517.17	23760.53
517.37	23936.66
517.58	24270.48
517.78	23692.95
517.99	23836.31
518.19	23998.10
518.39	24254.09
518.60	24307.34
518.80	24118.93
519.01	24280.72
519.21	24270.48
519.41	24344.20
519.62	24399.50
519.82	24553.10
520.03	25017.99
520.23	24829.57
520.43	24647.30
520.64	24639.11
520.84	25132.67
521.05	24876.68
521.25	25065.09
521.45	25196.16
521.66	25216.64
521.86	24954.50
522.07	25011.84
522.27	25220.74
522.47	25290.37
522.68	25439.87
522.88	25486.97
523.08	25540.22
523.29	25456.25
523.49	25642.62
523.70	25921.14
523.90	25716.34
524.10	25831.03
524.31	26218.10
524.51	25941.62
524.71	26527.34
524.92	25882.23
525.12	26338.93
525.33	25921.14
525.53	26426.99
525.73	26607.21
525.94	26517.10
526.14	26551.91
526.34	26730.09
526.55	26695.27
526.75	26656.36
526.95	26801.77
527.16	26848.87
527.36	26797.67
527.56	27008.61
527.77	27332.19
527.97	27301.47
528.17	27270.75
528.38	27184.74
528.58	27481.69
528.78	27602.52
528.99	27383.39
529.19	27629.15
529.39	27672.15
529.60	28118.61
529.80	28003.92
530.00	27821.66
530.21	27956.82
530.41	28165.71
530.61	27803.22
530.82	28241.49
531.02	28149.33
531.22	27954.77
531.43	28194.39
531.63	28558.92
531.83	28532.30
532.04	28657.23
532.24	28573.26
532.44	29126.21
532.64	28816.97
532.85	29027.91
533.05	28810.82
533.25	28851.78
533.46	28970.57
533.66	29152.84
533.86	28964.42
534.07	29341.25
534.27	29204.03
534.47	29765.18
534.67	29550.14
534.88	29681.21
535.08	29699.64
535.28	29851.19
535.49	30115.38
535.69	29838.90
535.89	30133.81
536.09	29945.40
536.30	30185.01
536.50	30211.64
536.70	30404.14
536.91	30393.90
537.11	30176.82
537.31	30602.80
537.51	30705.20
537.72	31112.74
537.92	30942.76
538.12	30998.06
538.32	30537.26
538.53	31004.20
538.73	30922.28
538.93	30899.75
539.13	31059.49
539.34	31317.54
539.54	31372.83
539.74	31024.68
539.94	31274.53
540.15	31247.91
540.35	31569.44
540.55	31581.73
540.75	31282.72
540.96	31702.56
541.16	31776.28
541.36	31542.81
541.56	31698.46
541.77	32171.54
541.97	31972.89
542.17	32095.77
542.37	32081.43
542.58	32333.33
542.78	31970.84
542.98	31483.42
543.18	32437.78
543.38	32443.92
543.59	32665.10
543.79	32208.40
543.99	32259.60
544.19	32429.59
544.40	32663.05
544.60	32828.94
544.80	32726.54
545.00	32740.88
545.20	32982.54
545.41	32919.05
545.61	32701.96
545.81	33222.15
546.01	33111.56
546.21	33084.94
546.42	33093.13
546.62	33066.50
546.82	33123.85
547.02	33029.64
547.22	33283.59
547.43	33125.89
547.63	33521.15
547.83	33551.87
548.03	33326.60
548.23	33504.77
548.44	33560.06
548.64	33545.73
548.84	33596.93
549.04	33617.41
549.24	33738.24
549.45	33676.80
549.65	33476.10
549.85	34104.82
550.05	34061.82
550.25	34002.43
550.45	34387.44
550.66	34039.29
550.86	34151.93
551.06	34407.92
551.26	34706.93
551.46	34528.75
551.66	34559.47
551.87	34538.99
552.07	34661.87
552.27	34737.65
552.47	34424.31
552.67	34680.30
552.87	34371.06
553.07	34680.30
553.28	34991.59
553.48	34606.58
553.68	34868.72
553.88	34921.96
554.08	34700.78
554.28	35268.07
554.48	34416.11
554.69	34850.28
554.89	34997.74
555.09	35038.70
555.29	34960.87
555.49	34915.82
555.69	35243.49
555.89	34764.27
556.10	35104.23
556.30	34827.76
556.50	35007.98
556.70	34887.15
556.90	35253.73
557.10	35450.34
557.30	34975.21
557.50	35335.65
557.70	35339.75
557.91	35218.92
558.11	35255.78
558.31	35583.46
558.51	35343.84
558.71	35429.86
558.91	35653.09
559.11	35431.91
559.31	35491.30
559.51	35300.84
559.72	35399.14
559.92	35730.91
560.12	35333.60
560.32	35759.58
560.52	35657.18
560.72	35696.10
560.92	36074.97
561.12	35743.20
561.32	36126.17
561.52	35612.13
561.72	36240.86
561.93	35446.24
562.13	35950.04
562.33	35780.06
562.53	36359.64
562.73	35896.80
562.93	36029.91
563.13	36011.48
563.33	35841.50
563.53	36556.24
563.73	36140.50
563.93	36107.74
564.13	36365.78
564.33	36165.08
564.53	36400.60
564.74	36451.80
564.94	36013.53
565.14	36240.86
565.34	36185.56
565.54	36554.19
565.74	36130.26
565.94	36685.26
566.14	36681.17
566.34	36369.88
566.54	36437.46
566.74	36498.90
566.94	36261.33
567.14	36496.85
567.34	36550.10
567.54	36550.10
567.74	36627.92
567.94	36265.43
568.14	36697.55
568.34	36822.48
568.54	36912.59
568.74	36662.74
568.94	36466.13
569.14	36957.64
569.34	36574.67
569.54	37213.64
569.75	36734.42
569.95	36818.38
570.15	37334.47
570.35	36771.28
570.55	36812.24
570.75	36812.24
570.95	37293.51
571.15	36912.59
571.35	37385.67
571.55	37277.13
571.75	37025.23
571.95	37254.60
572.15	36793.81
572.35	37385.67
572.55	37596.61
572.75	37625.28
572.95	37289.42
573.15	37297.61
573.35	37418.44
573.55	37225.93
573.75	37158.34
573.95	37113.29
574.15	37121.48
574.35	37686.72
574.55	37279.18
574.75	37279.18
574.95	37459.40
575.15	37397.96
575.34	37658.05
575.54	37797.31
575.74	37823.93
575.94	37770.69
576.14	37584.32
576.34	37658.05
576.54	37891.52
576.74	38061.50
576.94	38149.56
577.14	37905.85
577.34	38327.74
577.54	37662.15
577.74	38018.49
577.94	38157.75
578.14	38041.02
578.34	38501.81
578.54	37991.87
578.74	38276.54
578.94	38272.44
579.14	38100.41
579.34	38669.75
579.54	38380.98
579.74	38510.00
579.94	38538.68
580.13	38401.46
580.33	38430.13
580.53	38645.17
580.73	38673.84
580.93	38432.18
581.13	38788.53
581.33	38757.81
581.53	39046.57
581.73	38698.42
581.93	39050.67
582.13	38985.13
582.33	38596.02
582.53	38798.77
582.73	38733.23
582.92	38995.37
583.12	39062.96
583.32	38915.50
583.52	39183.79
583.72	39237.03
583.92	39312.81
584.12	39202.22
584.32	39366.06
584.52	39478.69
584.72	39058.86
584.92	39417.25
585.11	39419.30
585.31	39427.49
585.51	39443.88
585.71	39400.87
585.91	39767.46
586.11	39411.11
586.31	39648.68
586.51	39525.80
586.71	39646.63
586.91	39482.79
587.10	39624.10
587.30	39562.66
587.50	39699.87
587.70	40027.55
587.90	40007.07
588.10	39759.27
588.30	39714.21
588.50	39957.92
588.69	39914.91
588.89	39820.70
589.09	40115.61
589.29	40121.76
589.49	40539.54
589.69	39796.13
589.89	40519.06
590.08	40322.46
590.28	40215.96
590.48	39929.25
590.68	40166.81
590.88	40043.93
591.08	40256.92
591.28	40068.51
591.47	40242.59
591.67	40301.98
591.87	40375.70
592.07	40424.86
592.27	40670.61
592.47	40375.70
592.67	40242.59
592.86	40060.32
593.06	40461.72
593.26	40488.34
593.46	40580.50
593.66	40504.73
593.86	40732.05
594.05	40844.69
594.25	40816.02
594.45	40197.53
594.65	40512.92
594.85	40596.88
595.05	40541.59
595.24	40789.39
595.44	41121.16
595.64	40641.94
595.84	41057.68
596.04	40871.31
596.23	41178.51
596.43	41047.44
596.63	40588.69
596.83	41250.19
597.03	40791.44
597.22	41784.71
597.42	41039.25
597.62	41379.21
597.82	41153.93
598.02	41059.73
598.21	41530.76
598.41	41088.40
598.61	41727.36
598.81	41567.62
599.01	41702.79
599.20	41667.97
599.40	41635.20
599.60	41469.32
599.80	41356.68
600.00	41344.39
600.19	41536.90
600.39	41536.90
600.59	41846.15
600.79	41319.82
600.98	41907.58
601.18	41704.84
601.38	41958.78
601.58	41831.81
601.78	42030.46
601.97	41715.08
602.17	41885.06
602.37	41717.12
602.57	42208.64
602.76	42386.81
602.96	41489.80
603.16	42104.19
603.36	42147.20
603.55	41936.26
603.75	42317.18
603.95	42497.40
604.15	41799.04
604.34	42259.84
604.54	41958.78
604.74	42255.74
604.94	42360.19
605.13	42212.73
605.33	42298.75
605.53	42048.89
605.73	42841.46
605.92	42517.88
606.12	42257.79
606.32	42673.52
606.52	42124.67
606.71	42694.00
606.91	42831.22
607.11	42493.30
607.30	43021.68
607.50	42562.93
607.70	42749.30
607.90	43093.36
608.09	42536.31
608.29	42564.98
608.49	42616.18
608.68	43007.34
608.88	42995.06
609.08	42603.89
609.28	42700.15
609.47	42706.29
609.67	43322.73
609.87	42904.95
610.06	42874.23
610.26	42767.73
610.46	43021.68
610.66	42720.63
610.85	43173.23
611.05	43042.16
611.25	42780.02
611.44	42863.99
611.64	43089.26
611.84	42788.21
612.03	43042.16
612.23	42993.01
612.43	43160.94
612.62	42986.86
612.82	43386.22
613.02	42915.19
613.21	42708.34
613.41	42886.51
613.61	42988.91
613.80	42718.58
614.00	43234.67
614.20	43117.93
614.39	43236.72
614.59	43253.10
614.79	42986.86
614.98	42827.12
615.18	43087.21
615.38	42960.24
615.57	42808.69
615.77	43261.29
615.97	43318.64
616.16	42966.38
616.36	43230.57
616.56	43279.72
616.75	43048.30
616.95	42694.00
617.15	43179.37
617.34	42810.74
617.54	42716.53
617.74	43074.93
617.93	43357.55
618.13	42759.54
618.32	43146.61
618.52	42962.29
618.72	43226.48
618.91	43132.27
619.11	42601.85
619.31	43019.63
619.50	42673.52
619.70	42585.46
619.90	43111.79
620.09	42714.48
620.29	42972.53
620.48	43187.56
620.68	43021.68
620.88	42683.76
621.07	42849.65
621.27	43083.12
621.46	42657.14
621.66	42718.58
621.86	42487.16
622.05	42585.46
622.25	43095.41
622.44	42718.58
622.64	42698.10
622.84	42542.45
623.03	42644.85
623.23	42769.78
623.42	42521.98
623.62	42966.38
623.82	42698.10
624.01	42734.96
624.21	42714.48
624.40	42487.16
624.60	42677.62
624.80	42528.12
624.99	42681.72
625.19	42376.57
625.38	42587.51
625.58	42663.28
625.77	42249.60
625.97	42823.03
626.17	42110.33
626.36	42237.31
626.56	42487.16
626.75	42134.91
626.95	42591.61
627.14	42098.05
627.34	42745.20
627.54	42368.38
627.73	42550.65
627.93	42804.59
628.12	42075.52
628.32	42016.13
628.51	42204.54
628.71	42460.54
628.90	42642.81
629.10	42112.38
629.30	42634.61
629.49	42605.94
629.69	42141.05
629.88	42384.76
630.08	42438.01
630.27	42763.64
630.47	42562.93
630.66	42296.70
630.86	42165.63
631.05	42276.22
631.25	42591.61
631.44	42345.85
631.64	42308.99
631.84	42444.15
632.03	42481.02
632.23	42333.56
632.42	42796.40
632.62	42382.71
632.81	42118.53
633.01	42839.41
633.20	42292.60
633.40	42460.54
633.59	41737.60
633.79	42093.95
633.98	42438.01
634.18	42284.41
634.37	42345.85
634.57	42421.62
634.76	42517.88
634.96	42376.57
635.15	42356.09
635.35	42225.02
635.54	42454.39
635.74	42366.33
635.93	42225.02
636.13	42286.46
636.32	42558.84
636.52	42104.19
636.71	42263.93
636.91	42116.48
637.10	42237.31
637.30	42132.86
637.49	42093.95
637.69	42233.21
637.88	42225.02
638.08	42028.41
638.27	42552.69
638.46	41905.54
638.66	42384.76
638.85	41938.30
639.05	42751.35
639.24	42362.23
639.44	41776.51
639.63	42792.31
639.83	42478.97
640.02	42229.12
640.22	42591.61
640.41	42607.99
640.61	41940.35
640.80	42337.66
640.99	42321.27
641.19	42327.42
641.38	42358.14
641.58	42024.32
641.77	41883.01
641.97	42038.65
642.16	42225.02
642.36	42188.16
642.55	43054.45
642.74	42188.16
642.94	42663.28
643.13	42272.12
643.33	42124.67
643.52	42468.73
643.72	42444.15
643.91	42382.71
644.10	42405.24
644.30	42775.92
644.49	42642.81
644.69	42509.69
644.88	42376.57
645.08	42184.06
645.27	42200.44
645.46	42167.68
645.66	42872.18
645.85	42272.12
646.05	42669.43
646.24	42392.95
646.43	42280.31
646.63	42536.31
646.82	42571.13
647.02	42229.12
647.21	42511.74
647.40	42317.18
647.60	42485.11
647.79	42546.55
647.99	42587.51
648.18	42057.09
648.37	42548.60
648.57	42306.94
648.76	42374.52
648.96	42079.61
649.15	42368.38
649.34	42376.57
649.54	42458.49
649.73	42456.44
649.92	42472.82
650.12	42421.62
650.31	42456.44
650.51	42411.38
650.70	42126.72
650.89	42247.55
651.09	43023.73
651.28	42597.75
651.47	42788.21
651.67	42333.56
651.86	43019.63
652.06	41930.11
652.25	42734.96
652.44	42478.97
652.64	42347.90
652.83	42194.30
653.02	42294.65
653.22	42685.81
653.41	42270.08
653.60	42073.47
653.80	42552.69
653.99	42593.65
654.18	42177.92
654.38	42216.83
654.57	42362.23
654.76	42122.62
654.96	42182.01
655.15	42286.46
655.34	42407.29
655.54	42075.52
655.73	42159.48
655.92	42186.11
656.12	42259.84
656.31	42120.57
656.50	42104.19
656.70	42186.11
656.89	42325.37
657.08	42380.67
657.28	42454.39
657.47	42245.50
657.66	42366.33
657.86	41991.55
658.05	42227.07
658.24	42517.88
658.43	41981.31
658.63	42136.96
658.82	42298.75
659.01	42106.24
659.21	42976.62
659.40	42112.38
659.59	42263.93
659.79	42331.51
659.98	42126.72
660.17	42597.75
660.36	42325.37
660.56	42446.20
660.75	42130.81
660.94	42376.57
661.14	42169.72
661.33	42192.25
661.52	41753.99
661.71	42700.15
661.91	42139.00
662.10	41919.87
662.29	41733.51
662.49	42106.24
662.68	42134.91
662.87	42339.71
663.06	42057.09
663.26	42040.70
663.45	42470.78
663.64	41932.16
663.83	42036.61
664.03	41725.32
664.22	41825.67
664.41	41893.25
664.60	41418.12
664.80	42372.47
664.99	41682.31
665.18	42229.12
665.37	41786.75
665.57	42339.71
665.76	41727.36
665.95	41880.96
666.14	41848.19
666.34	41721.22
666.53	41866.63
666.72	41745.80
666.91	41731.46
667.11	41575.81
667.30	42022.27
667.49	41964.93
667.68	42145.15
667.87	41559.43
668.07	41831.81
668.26	42077.57
668.45	41930.11
668.64	41559.43
668.84	42030.46
669.03	41997.70
669.22	41733.51
669.41	41563.53
669.60	41825.67
669.80	41162.12
669.99	41987.46
670.18	41651.59
670.37	41362.82
670.57	42028.41
670.76	41604.49
670.95	42130.81
671.14	41973.12
671.33	41796.99
671.53	41782.66
671.72	41493.89
671.91	41672.07
672.10	41809.28
672.29	41471.37
672.48	41063.82
672.68	41676.16
672.87	41131.40
673.06	41213.32
673.25	41018.77
673.44	41309.58
673.64	41190.80
673.83	41289.10
674.02	41477.51
674.21	41090.44
674.40	41022.86
674.59	41029.01
674.79	41383.30
674.98	41168.27
675.17	41643.40
675.36	41190.80
675.55	41553.29
675.74	41074.06
675.94	40867.22
676.13	41250.19
676.32	41119.12
676.51	41246.09
676.70	41278.86
676.89	41196.94
677.08	41373.06
677.28	40969.61
677.47	41182.60
677.66	41428.36
677.85	41223.56
678.04	40945.04
678.23	41209.23
678.42	41053.58
678.62	40826.26
678.81	41248.14
679.00	40590.74
679.19	41254.28
679.38	40717.71
679.57	40617.36
679.76	40838.54
679.96	40945.04
680.15	40834.45
680.34	40754.58
680.53	40930.70
680.72	40996.24
680.91	40723.86
681.10	40553.88
681.29	40842.64
681.48	40621.46
681.68	40676.76
681.87	40484.25
682.06	40521.11
682.25	40230.30
682.44	40664.47
682.63	40574.36
682.82	40144.28
683.01	40279.45
683.20	40486.29
683.39	40486.29
683.59	40414.62
683.78	40164.76
683.97	40027.55
684.16	40213.91
684.35	40619.41
684.54	40058.27
684.73	40113.56
684.92	40332.70
685.11	40136.09
685.30	39910.82
685.49	40609.17
685.69	40037.79
685.88	40170.91
686.07	39867.81
686.26	39880.10
686.45	40062.36
686.64	39884.19
686.83	40134.04
687.02	40107.42
687.21	40277.40
687.40	39826.85
687.59	39726.50
687.78	40146.33
687.97	40193.43
688.16	39876.00
688.35	39785.89
688.54	39437.73
688.74	39699.87
688.93	39652.77
689.12	39566.76
689.31	39785.89
689.50	39468.45
689.69	39558.56
689.88	39466.41
690.07	39683.49
690.26	39425.45
690.45	39792.03
690.64	39538.08
690.83	39742.88
691.02	38999.47
691.21	39429.54
691.40	39312.81
691.59	39646.63
691.78	39656.87
691.97	39443.88
692.16	38903.21
692.35	39366.06
692.54	39390.63
692.73	38899.12
692.92	39382.44
693.11	39753.12
693.30	39214.51
693.49	39247.27
693.68	39345.58
693.87	39110.06
694.06	39108.01
694.25	39099.82
694.44	38710.71
694.63	38985.13
694.82	39116.20
695.01	38866.35
695.20	38860.21
695.39	39097.77
695.58	38978.99
695.77	38608.31
695.96	38237.62
696.15	38978.99
696.34	38321.59
696.53	38639.03
696.72	38686.13
696.91	38374.84
697.10	38782.38
697.29	38641.07
697.48	38679.99
697.67	38192.57
697.86	38096.31
698.05	37928.38
698.24	38108.60
698.43	38225.34
698.62	38507.96
698.81	37674.43
699.00	38548.92
699.19	37715.39
699.38	38102.46
699.57	38276.54
699.76	38446.52
699.95	38219.19
700.14	37846.46
700.32	38049.21
700.51	37963.20
700.70	38311.35
700.89	38225.34
701.08	38311.35
701.27	37791.17
701.46	38157.75
701.65	37795.26
701.84	37926.33
702.03	37793.22
702.22	37674.43
702.41	37664.19
702.60	37807.55
702.79	37383.62
702.98	37074.38
703.17	37457.35
703.35	37651.91
703.54	37334.47
703.73	37662.15
703.92	37455.30
704.11	37479.88
704.30	37381.57
704.49	37436.87
704.68	37010.89
704.87	37010.89
705.06	36871.63
705.25	37221.83
705.43	37258.70
705.62	36961.74
705.81	37168.58
706.00	37127.63
706.19	37012.94
706.38	37195.21
706.57	36677.07
706.76	37156.30
706.95	36769.23
707.14	36992.46
707.32	36742.61
707.51	36402.64
707.70	36974.03
707.89	36754.90
708.08	36849.10
708.27	36804.05
708.46	37010.89
708.65	36443.60
708.84	36681.17
709.02	37154.25
709.21	36701.65
709.40	36783.57
709.59	36353.49
709.78	36662.74
709.97	36584.91
710.16	36240.86
710.34	36443.60
710.53	36408.79
710.72	36247.00
710.91	36371.92
711.10	36210.14
711.29	36218.33
711.48	36220.38
711.66	36251.09
711.85	36156.89
712.04	36169.18
712.23	36337.11
712.42	36167.13
712.61	35874.27
712.80	35880.41
712.98	36113.88
713.17	35632.61
713.36	35866.08
713.55	36103.64
713.74	36130.26
713.93	35886.56
714.11	35692.00
714.30	35675.62
714.49	35778.01
714.68	35974.62
714.87	35827.17
715.06	35890.65
715.24	35337.70
715.43	35591.65
715.62	35184.10
715.81	35212.77
716.00	35343.84
716.18	35333.60
716.37	35048.94
716.56	34887.15
716.75	35544.55
716.94	35298.79
717.12	34780.65
717.31	35116.52
717.50	34971.11
717.69	34674.16
717.88	34790.89
718.06	34751.98
718.25	34901.48
718.44	35005.93
718.63	34751.98
718.82	34850.28
719.00	34864.62
719.19	34643.44
719.38	34717.17
719.57	34571.76
719.76	34444.79
719.94	34303.48
720.13	34100.73
720.32	34336.24
720.51	34125.30
720.69	34311.67
720.88	34217.46
721.07	34403.83
721.26	33668.61
721.44	33811.96
721.63	34180.60
721.82	33746.43
722.01	34317.81
722.20	33928.70
722.38	33633.79
722.57	33992.19
722.76	33787.39
722.95	34143.74
723.13	33519.10
723.32	33400.32
723.51	33279.49
723.70	33580.54
723.88	33347.08
724.07	33340.93
724.26	33687.04
724.44	33134.09
724.63	33385.99
724.82	33205.77
725.01	33107.46
725.19	33107.46
725.38	33039.88
725.57	32790.03
725.76	32939.53
725.94	33000.97
726.13	32970.25
726.32	32894.47
726.51	33074.70
726.69	33029.64
726.88	33138.18
727.07	32769.55
727.25	32751.12
727.44	32923.15
727.63	32855.56
727.82	32957.96
728.00	32798.22
728.19	32493.07
728.38	33234.44
728.56	32665.10
728.75	32886.28
728.94	33017.35
729.12	32562.70
729.31	32710.16
729.50	32726.54
729.69	32978.44
729.87	32620.05
730.06	32540.18
730.25	32400.91
730.43	32732.68
730.62	32515.60
730.81	32607.76
730.99	32644.62
731.18	32380.43
731.37	32572.94
731.55	32405.01
731.74	32738.83
731.93	32462.35
732.11	32448.02
732.30	32364.05
732.49	32372.24
732.67	32439.82
732.86	32321.04
733.05	32306.71
733.23	31919.64
733.42	32298.52
733.61	31866.39
733.79	32243.22
733.98	32355.86
734.17	31997.46
734.35	31962.65
734.54	32257.56
734.73	32196.12
734.91	32009.75
735.10	31921.69
735.29	32196.12
735.47	32042.52
735.66	31933.98
735.84	31780.38
736.03	31776.28
736.22	32165.40
736.40	31837.72
736.59	31827.48
736.78	31405.60
736.96	31600.16
737.15	31837.72
737.33	31561.25
737.52	31577.63
737.71	31628.83
737.89	31557.15
738.08	31442.46
738.27	31397.41
738.45	31563.29
738.64	31933.98
738.82	31723.04
739.01	31219.24
739.20	31407.65
739.38	31661.60
739.57	31798.81
739.75	31591.97
739.94	31354.40
740.13	31335.97
740.31	30948.90
740.50	31366.69
740.68	31395.36
740.87	31376.93
741.06	31284.77
741.24	31243.81
741.43	31006.25
741.61	30918.18
741.80	30768.68
741.99	30866.98
742.17	30866.98
742.36	31204.90
742.54	31219.24
742.73	31024.68
742.91	31059.49
743.10	30729.77
743.29	31039.01
743.47	30901.80
743.66	30672.43
743.84	30834.22
744.03	30660.14
744.21	30676.52
744.40	30998.06
744.59	30840.36
744.77	30514.73
744.96	30672.43
745.14	30584.37
745.33	30447.15
745.51	30289.46
745.70	30574.13
745.88	30373.42
746.07	30764.59
746.26	30182.96
746.44	30379.57
746.63	30320.18
746.81	30729.77
747.00	30203.44
747.18	30549.55
747.37	30357.04
747.55	30357.04
747.74	30514.73
747.92	30260.79
748.11	30494.25
748.29	30354.99
748.48	30328.37
748.66	30178.87
748.85	30275.12
749.03	30230.07
749.22	30180.92
749.41	29984.31
749.59	29998.65
749.78	30107.19
749.96	29615.68
750.15	29822.52
750.33	30162.48
750.52	30070.33
750.70	29730.36
750.89	29869.62
751.07	29582.91
751.26	29750.84
751.44	29965.88
751.63	29609.53
751.81	29675.07
752.00	29541.95
752.18	29615.68
752.37	29292.10
752.55	29181.51
752.74	29298.24
752.92	29603.39
753.10	29480.51
753.29	29345.34
753.47	29423.17
753.66	29312.58
753.84	29576.76
754.03	29189.70
754.21	29099.59
754.40	29576.76
754.58	29161.03
754.77	29093.44
754.95	28907.08
755.14	29296.19
755.32	29302.34
755.51	28921.41
755.69	28984.90
755.88	28900.94
756.06	29079.11
756.24	29421.12
756.43	28970.57
756.61	29103.68
756.80	28956.23
756.98	28806.73
757.17	28720.71
757.35	28894.79
757.54	28759.63
757.72	28849.74
757.90	28704.33
758.09	28558.92
758.27	28880.46
758.46	28708.43
758.64	28331.60
758.83	28501.58
759.01	28735.05
759.19	28554.83
759.38	28597.84
759.56	28743.24
759.75	28409.42
759.93	28124.75
760.12	28208.72
760.30	28436.05
760.48	28065.36
760.67	28214.87
760.85	28264.02
761.04	28264.02
761.22	28329.55
761.40	28079.70
761.59	28114.52
761.77	28323.41
761.96	28139.09
762.14	27758.17
762.32	27969.11
762.51	27870.81
762.69	27592.28
762.88	27829.85
763.06	28018.26
763.24	28051.03
763.43	28087.89
763.61	27502.17
763.80	27850.33
763.98	27870.81
764.16	27795.03
764.35	27723.35
764.53	27326.05
764.72	27528.80
764.90	27743.83
765.08	27561.56
765.27	27367.01
765.45	27481.69
765.63	27166.31
765.82	27457.12
766.00	27207.26
766.18	27514.46
766.37	27639.39
766.55	27231.84
766.74	27070.05
766.92	27162.21
767.10	27235.94
767.29	27278.94
767.47	26967.65
767.65	27362.91
767.84	26924.65
768.02	27295.33
768.20	27068.00
768.39	27301.47
768.57	27184.74
768.75	27162.21
768.94	26863.21
769.12	27104.87
769.30	26789.48
769.49	26895.97
769.67	26912.36
769.85	26818.15
770.04	26965.60
770.22	26705.51
770.40	26437.23
770.59	26674.79
770.77	26893.93
770.95	26568.30
771.14	26283.63
771.32	26310.25
771.50	26429.04
771.69	26521.20
771.87	26732.14
772.05	26484.33
772.24	26170.99
772.42	26273.39
772.60	26349.17
772.78	25958.00
772.97	26224.24
773.15	26574.44
773.33	26439.28
773.52	25986.68
773.70	26293.87
773.88	26068.59
774.07	26142.32
774.25	26041.97
774.43	26265.20
774.61	26218.10
774.80	26279.54
774.98	26420.84
775.16	26406.51
775.34	26230.38
775.53	26031.73
775.71	26257.01
775.89	26173.04
776.08	26060.40
776.26	26107.51
776.44	26044.02
776.62	26136.18
776.81	26027.63
776.99	26332.78
777.17	26099.31
777.35	26248.82
777.54	26326.64
777.72	26123.89
777.90	26234.48
778.08	26461.80
778.27	26304.11
778.45	26500.72
778.63	26580.59
778.81	26377.84
779.00	26558.06
779.18	26461.80
779.36	26330.73
779.54	26570.35
779.73	26338.93
779.91	26386.03
780.09	26447.47
780.27	26732.14
780.46	26521.20
780.64	26521.20
780.82	26482.28
781.00	26416.75
781.19	26453.61
781.37	26402.41
781.55	26279.54
781.73	26687.08
781.91	26678.89
782.10	26603.11
782.28	26271.34
782.46	26713.70
782.64	26541.68
782.82	26447.47
783.01	26611.31
783.19	26574.44
783.37	26590.83
783.55	26363.50
783.74	26637.93
783.92	26369.65
784.10	26668.65
784.28	26424.94
784.46	26275.44
784.64	26582.63
784.83	26762.86
785.01	26900.07
785.19	26642.03
785.37	26861.16
785.55	26730.09
785.74	26330.73
785.92	26396.27
786.10	26490.48
786.28	26578.54
786.46	26224.24
786.64	26170.99
786.83	26476.14
787.01	26369.65
787.19	26467.95
787.37	26154.61
787.55	26154.61
787.74	26056.31
787.92	26293.87
788.10	26093.17
788.28	26064.50
788.46	26254.96
788.64	25865.85
788.82	26160.75
789.01	26003.06
789.19	26017.40
789.37	26046.07
789.55	25929.33
789.73	25998.96
789.91	25818.74
790.09	25714.30
790.28	25976.44
790.46	25593.47
790.64	25677.43
790.82	25417.34
791.00	25595.51
791.18	25538.17
791.36	25564.79
791.55	25511.55
791.73	25314.94
791.91	25177.73
792.09	25497.21
792.27	25306.75
792.45	25378.43
792.63	24968.84
792.81	25087.62
793.00	25040.51
793.18	25097.86
793.36	24739.46
793.54	24891.01
793.72	24944.26
793.90	24987.27
794.08	24700.55
794.26	24782.47
794.44	24645.26
794.62	24675.98
794.81	24630.92
794.99	24700.55
795.17	24422.03
795.35	24508.04
795.53	24618.63
795.71	24389.26
795.89	24266.38
796.07	24200.85
796.25	24215.18
796.43	23979.67
796.61	23867.03
796.80	24014.48
796.98	24045.20
797.16	23858.84
797.34	23821.97
797.52	23586.46
797.70	24086.16
797.88	24059.54
798.06	23858.84
798.24	23668.37
798.42	23629.46
798.60	23690.90
798.78	23350.94
798.96	23570.07
799.14	23443.10
799.32	23322.27
799.51	23211.68
799.69	23377.56
799.87	23103.14
800.05	22763.17
800.23	22871.72
800.41	23004.83
800.59	23209.63
800.77	22865.57
800.95	22972.07
801.13	22806.18
801.31	22578.86
801.49	22773.41
801.67	22740.64
801.85	22632.10
802.03	22576.81
802.21	22546.09
802.39	22451.88
802.57	22628.01
802.75	22345.39
802.93	22040.24
803.11	22419.11
803.29	22150.83
803.47	22140.59
803.65	22140.59
803.83	22038.19
804.01	22048.43
804.19	21800.63
804.37	22097.58
804.55	22077.10
804.73	21964.46
804.91	21657.27
805.09	21874.35
805.27	21962.42
805.45	21702.32
805.63	21462.71
805.81	21341.88
805.99	21735.09
806.17	21454.52
806.35	21395.13
806.53	21331.64
806.71	21446.33
806.89	21173.95
807.07	21204.67
807.25	21268.16
807.43	21274.30
807.61	21210.81
807.79	21073.60
807.97	21161.66
808.15	21259.96
808.33	20805.31
808.51	20905.66
808.69	21104.32
808.87	21049.02
809.05	20756.16
809.23	20969.15
809.41	20670.15
809.59	20813.51
809.77	20915.90
809.95	20833.99
810.13	20725.44
810.31	20557.51
810.49	20475.59
810.67	20516.55
810.84	20559.56
811.02	20608.71
811.20	20530.89
811.38	20543.17
811.56	19979.98
811.74	20254.41
811.92	20154.06
812.10	20080.33
812.28	20278.99
812.46	20016.85
812.64	20137.68
812.82	19926.74
813.00	19988.18
813.18	20149.96
813.36	20078.29
813.53	19816.15
813.71	19855.06
813.89	19791.57
814.07	19791.57
814.25	19945.17
814.43	19451.61
814.61	19578.58
814.79	19617.49
814.97	19459.80
815.15	19654.36
815.33	19281.63
815.50	19189.47
815.68	19467.99
815.86	19146.46
816.04	19257.05
816.22	19279.58
816.40	19252.95
816.58	19482.33
816.76	19119.84
816.94	18968.29
817.11	18869.98
817.29	18947.81
817.47	19123.93
817.65	18939.62
817.83	18992.86
818.01	18908.90
818.19	18949.85
818.37	18845.41
818.54	18484.97
818.72	18714.34
818.90	18704.10
819.08	18788.07
819.26	18527.97
819.44	18581.22
819.62	18681.57
819.80	18704.10
819.97	18530.02
820.15	18568.93
820.33	18413.29
820.51	18405.10
820.69	18239.21
820.87	18458.34
821.05	18476.77
821.22	18218.73
821.40	18489.06
821.58	18030.32
821.76	18362.09
821.94	18231.02
822.12	18145.00
822.29	18378.47
822.47	18030.32
822.65	18306.79
822.83	18228.97
823.01	18040.56
823.19	18058.99
823.36	17829.62
823.54	17956.59
823.72	17985.26
823.90	18126.57
824.08	17610.48
824.25	17899.25
824.43	17739.51
824.61	17835.76
824.79	17770.22
824.97	17665.78
825.15	17811.18
825.32	17739.51
825.50	17667.83
825.68	17565.43
825.86	17753.84
826.04	17503.99
826.21	17571.57
826.39	17688.31
826.57	17575.67
826.75	17391.35
826.93	17336.06
827.10	17485.56
827.28	17327.86
827.46	17473.27
827.64	17305.34
827.81	17121.02
827.99	17493.75
828.17	17215.23
828.35	17098.49
828.53	17102.59
828.70	17149.69
828.88	17092.35
829.06	17194.75
829.24	17063.68
829.41	17006.33
829.59	17088.25
829.77	16912.13
829.95	16897.79
830.12	17176.31
830.30	16914.17
830.48	17270.52
830.66	16992.00
830.84	16885.50
831.01	16787.20
831.19	16783.10
831.37	16819.97
831.55	16686.85
831.72	16658.18
831.90	16600.83
832.08	16715.52
832.25	16686.85
832.43	16459.52
832.61	16402.18
832.79	16576.26
832.96	16525.06
833.14	16514.82
833.32	16611.07
833.50	16527.11
833.67	16518.92
833.85	16234.25
834.03	16211.72
834.20	16508.68
834.38	16211.72
834.56	16234.25
834.74	16369.41
834.91	16133.90
835.09	16203.53
835.27	15988.49
835.44	16006.92
835.62	15845.13
835.80	16293.64
835.98	16113.42
836.15	15953.68
836.33	16033.55
836.51	16094.99
836.68	15918.86
836.86	15961.87
837.04	15908.62
837.21	15740.69
837.39	15732.50
837.57	15814.41
837.75	15734.54
837.92	15578.90
838.10	15730.45
838.28	15734.54
838.45	15580.95
838.63	15542.03
838.81	15689.49
838.98	15417.11
839.16	15374.10
839.34	15607.57
839.51	15476.50
839.69	15443.73
839.87	15228.70
840.04	15302.42
840.22	15580.95
840.40	15433.49
840.57	15394.58
840.75	15507.22
840.93	15048.47
841.10	15316.76
841.28	15175.45
841.46	15370.01
841.63	15306.52
841.81	15286.04
841.98	15376.15
842.16	15017.75
842.34	15054.62
842.51	15222.55
842.69	15064.86
842.87	15013.66
843.04	15331.09
843.22	14984.99
843.40	15302.42
843.57	14976.80
843.75	14952.22
843.92	14774.05
844.10	14966.56
844.28	15015.71
844.45	14855.97
844.63	14911.26
844.81	14747.42
844.98	14860.06
845.16	15030.04
845.33	14632.74
845.51	14796.57
845.69	14614.30
845.86	14688.03
846.04	14563.11
846.21	14688.03
846.39	14685.98
846.57	14528.29
846.74	14483.24
846.92	14599.97
847.09	14667.55
847.27	14663.46
847.45	14501.67
847.62	14714.66
847.80	14561.06
847.97	14683.94
848.15	14468.90
848.32	14276.39
848.50	14303.01
848.68	14348.07
848.85	14464.80
849.03	14362.40
849.20	14065.45
849.38	14452.52
849.56	14386.98
849.73	14231.33
849.91	14190.38
850.08	14341.93
850.26	14272.29
850.43	14169.90
850.61	14087.98
850.78	14071.59
850.96	14073.64
851.14	13711.15
851.31	14049.07
851.49	14055.21
851.66	13965.10
851.84	14067.50
852.01	14126.89
852.19	13985.58
852.36	13967.15
852.54	14100.26
852.71	14040.87
852.89	14055.21
853.07	13920.04
853.24	13967.15
853.42	13811.50
853.59	14001.96
853.77	13854.51
853.94	13918.00
854.12	14010.15
854.29	13567.79
854.47	13711.15
854.64	13512.50
854.82	13831.98
854.99	13705.01
855.17	13575.98
855.34	13948.72
855.52	13672.24
855.69	13758.25
855.87	13625.14
856.04	13692.72
856.22	13557.55
856.39	13532.98
856.57	13555.51
856.74	13436.72
856.92	13469.49
857.09	13293.37
857.27	13528.88
857.44	13483.83
857.62	13406.00
857.79	13338.42
857.97	13285.17
858.14	13477.68
858.32	13152.06
858.49	13367.09
858.67	13401.91
858.84	13186.87
859.02	13412.15
859.19	12932.92
859.37	13166.39
859.54	13102.90
859.72	12924.73
859.89	12980.03
860.06	13166.39
860.24	12994.36
860.41	13045.56
860.59	13018.94
860.76	12953.40
860.94	12828.48
861.11	12846.91
861.29	12736.32
861.46	12851.00
861.64	12824.38
861.81	12623.68
861.98	12961.59
862.16	12721.98
862.33	12713.79
862.51	12713.79
862.68	12764.99
862.86	12887.87
863.03	12724.03
863.21	12844.86
863.38	12715.84
863.55	12724.03
863.73	12687.17
863.90	12668.73
864.08	12572.48
864.25	12437.31
864.43	12506.95
864.60	12558.14
864.77	12445.51
864.95	12494.66
865.12	12371.78
865.30	12578.62
865.47	12390.21
865.64	12490.56
865.82	12279.62
865.99	12498.75
866.17	12392.26
866.34	12218.18
866.51	12349.25
866.69	12312.39
866.86	12312.39
867.04	12408.64
867.21	12427.07
867.38	12095.30
867.56	12386.12
867.73	12347.20
867.91	12050.25
868.08	11931.47
868.25	12046.15
868.43	12085.06
868.60	12095.30
868.78	12107.59
868.95	11847.50
869.12	11921.23
869.30	11974.47
869.47	12273.48
869.64	11880.27
869.82	11908.94
869.99	11847.50
870.16	12117.83
870.34	11689.81
870.51	11986.76
870.69	11743.05
870.86	11781.96
871.03	11614.03
871.21	11515.73
871.38	11851.60
871.55	11525.97
871.73	11648.85
871.90	11489.10
872.07	11497.30
872.25	11724.62
872.42	11587.41
872.59	11544.40
872.77	11642.70
872.94	11566.93
873.11	11343.70
873.29	11325.27
873.46	11278.16
873.63	11355.99
873.81	11202.39
873.98	11108.18
874.15	11163.48
874.33	11229.01
874.50	11263.83
874.67	11317.08
874.85	11288.40
875.02	11190.10
875.19	11224.92
875.37	11083.61
875.54	10897.24
875.71	11061.08
875.88	10876.76
876.06	11007.83
876.23	11005.78
876.40	10932.06
876.58	11061.08
876.75	10827.61
876.92	10964.82
877.10	10911.58
877.27	10598.24
877.44	10723.16
877.61	10753.88
877.79	10766.17
877.96	10573.66
878.13	10633.05
878.31	10815.32
878.48	10481.50
878.65	10671.97
878.82	10635.10
879.00	10510.18
879.17	10561.37
879.34	10569.57
879.51	10325.86
879.69	10516.32
879.86	10266.47
880.03	10237.80
880.21	10321.76
880.38	10295.14
880.55	10403.68
880.72	10149.73
880.90	10536.80
881.07	10430.30
881.24	10469.22
881.41	10352.48
881.59	10440.54
881.76	10207.08
881.93	10258.28
882.10	10059.62
882.28	10205.03
882.45	10254.18
882.62	10112.87
882.79	10104.68
882.96	10020.71
883.14	10229.60
883.31	10035.05
883.48	10198.88
883.65	10188.64
883.83	10121.06
884.00	10219.36
884.17	10133.35
884.34	10067.81
884.51	10188.64
884.69	10145.64
884.86	9791.34
885.03	10139.49
885.20	10094.44
885.38	9979.75
885.55	9959.27
885.72	9895.78
885.89	10135.40
886.06	9840.49
886.24	9793.39
886.41	9789.29
886.58	10024.81
886.75	9934.70
886.92	9834.35
887.10	9744.24
887.27	9867.11
887.44	9824.11
887.61	9869.16
887.78	9946.98
887.95	9738.09
888.13	9860.97
888.30	9744.24
888.47	9842.54
888.64	9568.11
888.81	9568.11
888.99	9748.33
889.16	9742.19
889.33	9652.08
889.50	9518.96
889.67	9678.70
889.84	9580.40
890.01	9672.56
890.19	9516.91
890.36	9658.22
890.53	9678.70
890.70	9682.80
890.87	9357.17
891.04	9410.42
891.22	9381.74
891.39	9377.65
891.56	9361.27
891.73	9328.50
891.90	9199.48
892.07	9191.28
892.24	9533.29
892.42	9103.22
892.59	9379.70
892.76	9414.51
892.93	9357.17
893.10	9301.87
893.27	9172.85
893.44	9267.06
893.61	9236.34
893.79	9289.59
893.96	9281.39
894.13	9222.00
894.30	9305.97
894.47	9205.62
894.64	9154.42
894.81	9260.91
894.98	9060.21
895.15	9086.84
895.33	9011.06
895.50	9197.43
895.67	9056.12
895.84	9070.45
896.01	9011.06
896.18	8955.77
896.35	9217.91
896.52	9041.78
896.69	9078.65
896.86	9154.42
897.04	9045.88
897.21	9015.16
897.38	8912.76
897.55	9029.49
897.72	9033.59
897.89	8914.81
898.06	9011.06
898.23	9109.36
898.40	9117.56
898.57	9009.01
898.74	8875.90
898.91	8916.86
899.08	8980.34
899.26	9074.55
899.43	8939.38
899.60	8812.41
899.77	8935.29
899.94	9023.35
900.11	8798.07
900.28	8943.48
900.45	8836.99
900.62	8918.90
900.79	8877.94
900.96	8847.22
901.13	8963.96
901.30	8916.86
901.47	8726.39
901.64	8802.17
901.81	8736.63
901.98	8777.59
902.15	8886.14
902.32	8566.65
902.49	8802.17
902.66	8894.33
902.83	8896.38
903.01	8853.37
903.18	9033.59
903.35	8873.85
903.52	8820.60
903.69	8859.51
903.86	8652.67
904.03	8949.62
904.20	8904.57
904.37	8714.11
904.54	8750.97
904.71	8781.69
904.88	8853.37
905.05	8714.11
905.22	8851.32
905.39	8755.07
905.56	8714.11
905.73	8714.11
905.90	8820.60
906.07	8718.20
906.24	8888.18
906.41	8648.57
906.58	8722.30
906.75	8933.24
906.92	8632.19
907.09	8695.68
907.26	8826.75
907.43	8597.37
907.60	8703.87
907.77	8580.99
907.93	8836.99
908.10	8742.78
908.27	8591.23
908.44	8718.20
908.61	8693.63
908.78	8722.30
908.95	8718.20
909.12	8640.38
909.29	8638.33
909.46	8664.96
909.63	8615.80
909.80	8603.52
909.97	8806.27
910.14	8662.91
910.31	8535.93
910.48	8732.54
910.65	8537.98
910.82	8550.27
910.99	8548.22
911.16	8644.48
911.33	8529.79
911.50	8490.88
911.66	8114.05
911.83	8429.44
912.00	8423.30
912.17	8306.56
912.34	8478.59
912.51	8368.00
912.68	8335.23
912.85	8605.56
913.02	8316.80
913.19	8224.64
913.36	8261.51
913.53	8263.55
913.70	8292.23
913.86	8456.06
914.03	8148.87
914.20	8343.42
914.37	8214.40
914.54	8075.14
914.71	8171.40
914.88	8128.39
915.05	8214.40
915.22	8167.30
915.39	8216.45
915.55	8202.11
915.72	8087.43
915.89	8046.47
916.06	7995.27
916.23	8087.43
916.40	8036.23
916.57	8105.86
916.74	7948.17
916.91	7927.69
917.07	7786.38
917.24	7878.54
917.41	7815.05
917.58	7878.54
917.75	7645.07
917.92	7737.23
918.09	7731.08
918.26	7772.04
918.42	7815.05
918.59	7649.16
918.76	7716.75
918.93	7495.57
919.10	7481.23
919.27	7620.49
919.44	7526.29
919.60	7374.74
919.77	7477.13
919.94	7419.79
920.11	7421.84
920.28	7370.64
920.45	7452.56
920.61	7430.03
920.78	7341.97
920.95	7350.16
921.12	7286.67
921.29	7489.42
921.46	7118.74
921.62	7247.76
921.79	7374.74
921.96	7163.79
922.13	7149.46
922.30	7096.21
922.47	7151.51
922.63	7139.22
922.80	7057.30
922.97	7171.99
923.14	6881.18
923.31	7073.68
923.47	6717.34
923.64	6999.96
923.81	7036.82
923.98	6924.18
924.15	6913.94
924.32	6885.27
924.48	6819.74
924.65	6967.19
924.82	6760.34
924.99	6813.59
925.15	6705.05
925.32	6789.02
925.49	6850.46
925.66	6743.96
925.83	6600.60
925.99	6842.26
926.16	6639.51
926.33	6592.41
926.50	6565.79
926.67	6545.31
926.83	6614.94
927.00	6492.06
927.17	6412.19
927.34	6487.96
927.50	6436.77
927.67	6528.92
927.84	6399.90
928.01	6504.35
928.17	6428.57
928.34	6193.06
928.51	6234.02
928.68	6305.70
928.84	6344.61
929.01	6211.49
929.18	6113.19
929.35	6059.94
929.51	6148.00
929.68	6109.09
929.85	6027.17
930.02	6064.04
930.18	5963.68
930.35	5971.88
930.52	6012.84
930.69	6041.51
930.85	6041.51
931.02	5820.33
931.19	5795.75
931.36	5707.69
931.52	5797.80
931.69	5775.27
931.86	5863.33
932.02	5685.16
932.19	5652.39
932.36	5703.59
932.53	5601.19
932.69	5511.08
932.86	5533.61
933.03	5715.88
933.19	5463.98
933.36	5609.39
933.53	5433.26
933.70	5437.36
933.86	5443.50
934.03	5398.45
934.20	5308.34
934.36	5402.54
934.53	5302.19
934.70	5162.93
934.86	5240.75
935.03	5167.03
935.20	5230.51
935.36	5138.35
935.53	5038.00
935.70	5011.38
935.86	5105.59
936.03	5042.10
936.20	5001.14
936.36	4964.28
936.53	4876.21
936.70	4882.36
936.86	4968.37
937.03	4827.06
937.20	4609.98
937.36	4685.75
937.53	4540.35
937.70	4636.60
937.86	4501.44
938.03	4620.22
938.20	4433.85
938.36	4554.68
938.53	4392.89
938.70	4343.74
938.86	4474.81
939.03	4333.50
939.20	4272.06
939.36	4229.06
939.53	4194.24
939.70	4188.10
939.86	4022.21
940.03	4036.55
940.19	3979.20
940.36	4050.88
940.53	3968.96
940.69	3846.09
940.86	3975.11
941.03	3829.70
941.19	3850.18
941.36	3864.52
941.52	3829.70
941.69	3770.31
941.86	3702.73
942.02	3819.46
942.19	3588.04
942.35	3565.51
942.52	3561.42
942.69	3522.51
942.85	3549.13
943.02	3622.86
943.18	3452.88
943.35	3561.42
943.52	3430.35
943.68	3395.53
943.85	3383.24
944.01	3459.02
944.18	3395.53
944.35	3362.76
944.51	3379.15
944.68	3266.51
944.84	3416.01
945.01	3278.80
945.17	3366.86
945.34	3303.37
945.51	3262.41
945.67	3266.51
945.84	3284.94
946.00	3176.40
946.17	3172.30
946.33	3229.65
946.50	3174.35
946.67	3223.50
946.83	3243.98
947.00	3141.58
947.16	3131.34
947.33	3307.47
947.49	3110.86
947.66	3098.58
947.82	3184.59
947.99	3137.49
948.16	3237.84
948.32	3100.62
948.49	2990.03
948.65	3153.87
948.82	3074.00
948.98	3090.38
949.15	3014.61
949.31	3119.06
949.48	3125.20
949.64	3069.91
949.81	3106.77
949.97	3065.81
950.14	3168.21
950.30	3094.48
950.47	3106.77
950.63	3108.82
950.80	3012.56
950.96	2994.13
951.13	3026.90
951.30	3096.53
951.46	3092.43
951.63	3092.43
951.79	3112.91
951.96	3153.87
952.12	3114.96
952.29	3098.58
952.45	3100.62
952.62	3119.06
952.78	3074.00
952.94	3059.67
953.11	3067.86
953.27	3051.47
953.44	3098.58
953.60	3090.38
953.77	3018.71
953.93	3104.72
954.10	3028.95
954.26	3043.28
954.43	3039.19
954.59	3080.14
954.76	3071.95
954.92	3010.51
955.09	3080.14
955.25	2985.94
955.42	3049.43
955.58	3059.67
955.75	3088.34
955.91	2957.27
956.07	2992.08
956.24	3117.01
956.40	3026.90
956.57	3047.38
956.73	2969.55
956.90	2992.08
957.06	3018.71
957.23	2934.74
957.39	3051.47
957.56	2961.36
957.72	2990.03
957.88	2947.03
958.05	3008.47
958.21	2992.08
958.38	2914.26
958.54	2942.93
958.71	3014.61
958.87	2904.02
959.03	2967.51
959.20	2998.23
959.36	2822.10
959.53	3014.61
959.69	2830.29
959.85	2842.58
960.02	2791.38
960.18	2889.68
960.35	2949.08
960.51	3047.38
960.68	3016.66
960.84	3012.56
961.00	2963.41
961.17	2834.39
961.33	2938.84
961.50	2985.94
961.66	2926.55
961.82	2926.55
961.99	2967.51
962.15	2949.08
962.31	2772.95
962.48	2887.64
962.64	2850.77
962.81	2985.94
962.97	2987.99
963.13	2883.54
963.30	2871.25
963.46	2910.16
963.62	2910.16
963.79	2918.36
963.95	2885.59
964.12	2906.07
964.28	2889.68
964.44	2875.35
964.61	2856.92
964.77	2955.22
964.93	2820.05
965.10	2863.06
965.26	2934.74
965.42	2828.24
965.59	2779.09
965.75	2701.27
965.92	2877.40
966.08	2850.77
966.24	2777.05
966.41	2867.16
966.57	2815.96
966.73	2842.58
966.90	2791.38
967.06	2805.72
967.22	2869.20
967.39	2781.14
967.55	2783.19
967.71	2809.81
967.88	2752.47
968.04	2856.92
968.20	2723.80
968.37	2752.47
968.53	2725.85
968.69	2863.06
968.85	2789.33
969.02	2779.09
969.18	2729.94
969.34	2744.28
969.51	2703.32
969.67	2725.85
969.83	2721.75
970.00	2791.38
970.16	2705.37
970.32	2666.46
970.48	2787.29
970.65	2725.85
970.81	2731.99
970.97	2777.05
971.14	2578.39
971.30	2725.85
971.46	2885.59
971.63	2727.89
971.79	2709.46
971.95	2680.79
972.11	2625.50
972.28	2715.61
972.44	2625.50
972.60	2641.88
972.76	2658.26
972.93	2752.47
973.09	2619.35
973.25	2650.07
973.42	2662.36
973.58	2676.70
973.74	2643.93
973.90	2588.63
974.07	2670.55
974.23	2721.75
974.39	2650.07
974.55	2711.51
974.72	2633.69
974.88	2578.39
975.04	2699.22
975.20	2596.82
975.37	2607.06
975.53	2541.53
975.69	2662.36
975.85	2633.69
976.01	2619.35
976.18	2576.34
976.34	2641.88
976.50	2770.90
976.66	2639.83
976.83	2666.46
976.99	2580.44
977.15	2623.45
977.31	2576.34
977.47	2564.06
977.64	2553.82
977.80	2645.98
977.96	2521.05
978.12	2500.57
978.29	2488.28
978.45	2508.76
978.61	2480.09
978.77	2703.32
978.93	2609.11
979.10	2572.25
979.26	2435.03
979.42	2521.05
979.58	2480.09
979.74	2453.47
979.91	2519.00
980.07	2531.29
980.23	2535.39
980.39	2430.94
980.55	2502.62
980.71	2480.09
980.88	2453.47
981.04	2504.67
981.20	2582.49
981.36	2426.84
981.52	2482.14
981.68	2498.52
981.85	2527.19
982.01	2461.66
982.17	2469.85
982.33	2475.99
982.49	2439.13
982.65	2449.37
982.82	2410.46
982.98	2432.99
983.14	2453.47
983.30	2420.70
983.46	2473.95
983.62	2398.17
983.79	2455.51
983.95	2445.27
984.11	2439.13
984.27	2428.89
984.43	2318.30
984.59	2410.46
984.75	2410.46
984.91	2459.61
985.08	2412.51
985.24	2289.63
985.40	2420.70
985.56	2375.64
985.72	2437.08
985.88	2398.17
986.04	2408.41
986.20	2447.32
986.37	2318.30
986.53	2389.98
986.69	2392.03
986.85	2426.84
987.01	2426.84
987.17	2412.51
987.33	2392.03
987.49	2250.72
987.65	2332.64
987.82	2365.40
987.98	2303.96
988.14	2412.51
988.30	2387.93
988.46	2355.16
988.62	2287.58
988.78	2293.72
988.94	2269.15
989.10	2377.69
989.26	2328.54
989.42	2328.54
989.59	2285.53
989.75	2273.25
989.91	2361.31
990.07	2267.10
990.23	2283.49
990.39	2207.71
990.55	2351.07
990.71	2260.96
990.87	2277.34
991.03	2246.62
991.19	2250.72
991.35	2217.95
991.51	2230.24
991.67	2275.29
991.83	2297.82
992.00	2209.76
992.16	2176.99
992.32	2287.58
992.48	2275.29
992.64	2238.43
992.80	2164.70
992.96	2213.85
993.12	2183.13
993.28	2310.11
993.44	2269.15
993.60	2263.01
993.76	2263.01
993.92	2246.62
994.08	2254.81
994.24	2162.66
994.40	2185.18
994.56	2222.05
994.72	2133.98
994.88	2195.42
995.04	2207.71
995.20	2179.04
995.36	2181.09
995.52	2199.52
995.68	2215.90
995.84	2164.70
996.00	2226.14
996.16	2136.03
996.32	2220.00
996.48	2111.46
996.64	2181.09
996.80	2197.47
996.96	2236.38
997.12	2152.42
997.28	2199.52
997.44	2238.43
997.60	2146.27
997.76	2148.32
997.92	2170.85
998.08	2146.27
998.24	2162.66
998.40	2273.25
998.56	2220.00
998.72	2193.37
998.88	2144.22
999.04	2217.95
999.20	2103.26
999.36	2078.69
999.52	2133.98
999.68	2113.50
999.84	2095.07
1000.00	2166.75
1000.16	2220.00
1000.32	2029.54
1000.48	2224.09
1000.64	2074.59
1000.80	2070.50
1000.95	2107.36
1001.11	2123.74
1001.27	2015.20
1001.43	2191.33
1001.59	2058.21
1001.75	2084.83
1001.91	2095.07
1002.07	2095.07
1002.23	2117.60
1002.39	2088.93
1002.55	2095.07
1002.71	2088.93
1002.87	2078.69
1003.03	2072.54
1003.19	2105.31
1003.34	2060.26
1003.50	2052.06
1003.66	2074.59
1003.82	2007.01
1003.98	2105.31
1004.14	2131.94
1004.30	2080.74
1004.46	1990.63
1004.62	2039.78
1004.78	2047.97
1004.94	2045.92
1005.09	1982.43
1005.25	2027.49
1005.41	1955.81
1005.57	2054.11
1005.73	2002.91
1005.89	2037.73
1006.05	2070.50
1006.21	2070.50
1006.37	1992.67
1006.52	2037.73
1006.68	2052.06
1006.84	2072.54
1007.00	1961.95
1007.16	2033.63
1007.32	2101.22
1007.48	1980.39
1007.64	1986.53
1007.79	1982.43
1007.95	2009.06
1008.11	2066.40
1008.27	2039.78
1008.43	2074.59
1008.59	1970.15
1008.75	1957.86
1008.91	2029.54
1009.06	1949.67
1009.22	2017.25
1009.38	1900.52
1009.54	1955.81
1009.70	1974.24
1009.86	1968.10
1010.01	2041.82
1010.17	1949.67
1010.33	1931.23
1010.49	1941.47
1010.65	2023.39
1010.81	1904.61
1010.96	1902.56
1011.12	1869.80
1011.28	1873.89
1011.44	1980.39
1011.60	1900.52
1011.76	1949.67
1011.91	2105.31
1012.07	1912.80
1012.23	1863.65
1012.39	1888.23
1012.55	1955.81
1012.71	1908.71
1012.86	1998.82
1013.02	1908.71
1013.18	1875.94
1013.34	1957.86
1013.50	1941.47
1013.65	1859.56
1013.81	1867.75
1013.97	1875.94
1014.13	1880.04
1014.29	1898.47
1014.44	1943.52
1014.60	1970.15
1014.76	1898.47
1014.92	1908.71
1015.07	1923.04
1015.23	1906.66
1015.39	1931.23
1015.55	1920.99
1015.71	1882.08
1015.86	1894.37
1016.02	1935.33
1016.18	1841.12
1016.34	1890.28
1016.49	1884.13
1016.65	1818.60
1016.81	1847.27
1016.97	1867.75
1017.12	1855.46
1017.28	1794.02
1017.44	1802.21
1017.60	1804.26
1017.75	1890.28
1017.91	1834.98
1018.07	1914.85
1018.23	1791.97
1018.38	1841.12
1018.54	1880.04
1018.70	1886.18
1018.86	1783.78
1019.01	1775.59
1019.17	1808.36
1019.33	1968.10
1019.49	1810.40
1019.64	1925.09
1019.80	1933.28
1019.96	1863.65
1020.12	1863.65
1020.27	1775.59
1020.43	1851.36
1020.59	1808.36
1020.74	1847.27
1020.90	1884.13
1021.06	1826.79
1021.22	1884.13
1021.37	1839.08
1021.53	1857.51
1021.69	1845.22
1021.84	1753.06
1022.00	1816.55
1022.16	1804.26
1022.31	1843.17
1022.47	1863.65
1022.63	1841.12
1022.79	1798.12
1022.94	1806.31
1023.10	1800.16
1023.26	1828.84
1023.41	1759.21
1023.57	1736.68
1023.73	1800.16
1023.88	1779.68
1024.04	1826.79
1024.20	1894.37
1024.35	1785.83
1024.51	1777.64
1024.67	1785.83
1024.82	1837.03
1024.98	1785.83
1025.14	1820.64
1025.29	1794.02
1025.45	1781.73
1025.61	1791.97
1025.76	1691.62
1025.92	1738.73
1026.08	1767.40
1026.23	1830.88
1026.39	1736.68
1026.55	1757.16
1026.70	1777.64
1026.86	1839.08
1027.02	1767.40
1027.17	1732.58
1027.33	1837.03
1027.48	1718.25
1027.64	1757.16
1027.80	1726.44
1027.95	1726.44
1028.11	1697.77
1028.27	1783.78
1028.42	1767.40
1028.58	1705.96
1028.73	1724.39
1028.89	1695.72
1029.05	1781.73
1029.20	1761.25
>>>>>End Processed Spectral Data<<<<<
