SpectraSuite Data File
++++++++++++++++++++++++++++++++++++
Date: Tue Jun 13 11:50:59 CEST 2017
User: INFO_000
Dark Spectrum Present: No
Reference Spectrum Present: No
Number of Sampled Component Spectra: 1
Spectrometers: USB4H00879
Integration Time (usec): 30000 (USB4H00879)
Spectra Averaged: 1 (USB4H00879)
Boxcar Smoothing: 0 (USB4H00879)
Correct for Electrical Dark: No (USB4H00879)
Strobe/Lamp Enabled: No (USB4H00879)
Correct for Detector Non-linearity: No (USB4H00879)
Correct for Stray Light: No (USB4H00879)
Number of Pixels in Processed Spectrum: 3648
>>>>>Begin Processed Spectral Data<<<<<
345.13	1267.69
345.34	1267.69
345.56	1267.69
345.78	1351.66
345.99	1390.57
346.21	1533.93
346.42	1581.03
346.64	1435.63
346.86	1548.26
347.07	1456.11
347.29	1535.98
347.50	1509.35
347.72	1492.97
347.94	1546.22
348.15	1519.59
348.37	1488.87
348.59	1544.17
348.80	1513.45
349.02	1591.27
349.23	1634.28
349.45	1609.70
349.67	1640.42
349.88	1585.13
350.10	1714.15
350.31	1652.71
350.53	1562.60
350.75	1636.33
350.96	1648.61
351.18	1630.18
351.39	1650.66
351.61	1572.84
351.82	1681.38
352.04	1667.05
352.26	1679.33
352.47	1710.05
352.69	1681.38
352.90	1697.77
353.12	1632.23
353.34	1583.08
353.55	1624.04
353.77	1716.20
353.98	1611.75
354.20	1609.70
354.41	1701.86
354.63	1734.63
354.85	1742.82
355.06	1687.53
355.28	1628.14
355.49	1701.86
355.71	1662.95
355.92	1628.14
356.14	1689.57
356.35	1648.61
356.57	1644.52
356.79	1675.24
357.00	1601.51
357.22	1691.62
357.43	1677.29
357.65	1654.76
357.86	1656.81
358.08	1710.05
358.29	1716.20
358.51	1705.96
358.72	1798.12
358.94	1693.67
359.16	1652.71
359.37	1716.20
359.59	1689.57
359.80	1699.81
360.02	1708.01
360.23	1742.82
360.45	1740.77
360.66	1669.09
360.88	1712.10
361.09	1652.71
361.31	1761.25
361.52	1714.15
361.74	1761.25
361.95	1757.16
362.17	1673.19
362.38	1767.40
362.60	1751.01
362.81	1759.21
363.03	1742.82
363.24	1771.49
363.46	1812.45
363.67	1869.80
363.89	1769.44
364.10	1808.36
364.32	1744.87
364.53	1800.16
364.75	1734.63
364.96	1822.69
365.18	1814.50
365.39	1826.79
365.61	1773.54
365.82	1867.75
366.04	1789.92
366.25	1777.64
366.47	1826.79
366.68	1851.36
366.90	1798.12
367.11	1824.74
367.33	1853.41
367.54	1855.46
367.76	1757.16
367.97	1902.56
368.19	1771.49
368.40	1896.42
368.62	1816.55
368.83	1834.98
369.05	1804.26
369.26	1820.64
369.48	1818.60
369.69	1845.22
369.91	1841.12
370.12	1837.03
370.33	1869.80
370.55	1824.74
370.76	1820.64
370.98	1929.19
371.19	1781.73
371.41	1859.56
371.62	1877.99
371.84	1837.03
372.05	1892.32
372.27	1880.04
372.48	1925.09
372.69	1869.80
372.91	1943.52
373.12	1918.95
373.34	1832.93
373.55	1845.22
373.77	1925.09
373.98	1900.52
374.20	1880.04
374.41	2047.97
374.62	1970.15
374.84	1955.81
375.05	2029.54
375.27	1988.58
375.48	2004.96
375.70	2011.11
375.91	2015.20
376.12	2027.49
376.34	2041.82
376.55	2027.49
376.77	2072.54
376.98	1943.52
377.19	1996.77
377.41	1984.48
377.62	2058.21
377.84	2070.50
378.05	2070.50
378.27	2027.49
378.48	2056.16
378.69	2097.12
378.91	2150.37
379.12	2066.40
379.34	2125.79
379.55	2045.92
379.76	2185.18
379.98	1990.63
380.19	2054.11
380.41	2207.71
380.62	2127.84
380.83	2099.17
381.05	2039.78
381.26	2172.89
381.47	2183.13
381.69	2062.30
381.90	2174.94
382.12	2187.23
382.33	2088.93
382.54	2095.07
382.76	2172.89
382.97	2111.46
383.19	2109.41
383.40	2189.28
383.61	2127.84
383.83	2207.71
384.04	2224.09
384.25	2230.24
384.47	2195.42
384.68	2236.38
384.89	2113.50
385.11	2244.57
385.32	2150.37
385.54	2224.09
385.75	2236.38
385.96	2275.29
386.18	2263.01
386.39	2269.15
386.60	2306.01
386.82	2326.49
387.03	2328.54
387.24	2385.88
387.46	2383.84
387.67	2424.80
387.88	2394.08
388.10	2379.74
388.31	2445.27
388.52	2400.22
388.74	2330.59
388.95	2463.71
389.16	2385.88
389.38	2379.74
389.59	2484.19
389.80	2539.48
390.02	2486.23
390.23	2482.14
390.44	2445.27
390.66	2488.28
390.87	2516.95
391.08	2385.88
391.30	2568.15
391.51	2541.53
391.72	2580.44
391.94	2580.44
392.15	2537.43
392.36	2547.67
392.58	2523.10
392.79	2615.26
393.00	2613.21
393.22	2693.08
393.43	2711.51
393.64	2609.11
393.85	2650.07
394.07	2648.02
394.28	2645.98
394.49	2670.55
394.71	2684.89
394.92	2826.20
395.13	2764.76
395.35	2641.88
395.56	2785.24
395.77	2680.79
395.98	2828.24
396.20	2801.62
396.41	2715.61
396.62	2795.48
396.84	2795.48
397.05	2877.40
397.26	2912.21
397.47	2875.35
397.69	2770.90
397.90	2930.64
398.11	2926.55
398.32	2979.79
398.54	2758.61
398.75	2928.60
398.96	2904.02
399.18	3033.04
399.39	2963.41
399.60	2932.69
399.81	2928.60
400.03	3024.85
400.24	3153.87
400.45	2887.64
400.66	3071.95
400.88	2998.23
401.09	3117.01
401.30	3086.29
401.51	3190.74
401.73	3123.15
401.94	3125.20
402.15	3254.22
402.36	3061.71
402.58	3121.10
402.79	3239.89
403.00	3168.21
403.21	3229.65
403.43	3231.69
403.64	3207.12
403.85	3219.41
404.06	3235.79
404.27	3139.54
404.49	3217.36
404.70	3241.93
404.91	3360.72
405.12	3297.23
405.34	3200.98
405.55	3413.96
405.76	3233.74
405.97	3196.88
406.19	3336.14
406.40	3311.57
406.61	3344.33
406.82	3381.20
407.03	3276.75
407.25	3289.04
407.46	3399.63
407.67	3403.72
407.88	3448.78
408.09	3385.29
408.31	3510.22
408.52	3530.70
408.73	3469.26
408.94	3401.68
409.15	3514.31
409.37	3504.07
409.58	3608.52
409.79	3645.38
410.00	3626.95
410.21	3581.90
410.43	3534.79
410.64	3655.62
410.85	3563.47
411.06	3633.10
411.27	3649.48
411.48	3686.34
411.70	3641.29
411.91	3686.34
412.12	3674.06
412.33	3592.14
412.54	3717.06
412.76	3719.11
412.97	3704.78
413.18	3667.91
413.39	3747.78
413.60	3803.08
413.81	3803.08
414.03	3768.26
414.24	3729.35
414.45	3801.03
414.66	3880.90
414.87	3870.66
415.08	3874.76
415.30	4005.83
415.51	3829.70
415.72	3966.92
415.93	3942.34
416.14	4014.02
416.35	4003.78
416.56	3921.86
416.78	3975.11
416.99	3987.40
417.20	4054.98
417.41	3987.40
417.62	4009.92
417.83	4075.46
418.04	4132.80
418.26	4253.63
418.47	4140.99
418.68	4241.34
418.89	4011.97
419.10	4233.15
419.31	4243.39
419.52	4333.50
419.73	4384.70
419.95	4241.34
420.16	4016.07
420.37	4255.68
420.58	4376.51
420.79	4278.21
421.00	4353.98
421.21	4317.12
421.42	4296.64
421.63	4358.08
421.85	4376.51
422.06	4530.11
422.27	4437.95
422.48	4384.70
422.69	4591.55
422.90	4579.26
423.11	4652.98
423.32	4577.21
423.53	4761.53
423.75	4675.51
423.96	4796.34
424.17	4640.70
424.38	4722.62
424.59	4802.49
424.80	4861.88
425.01	4763.58
425.22	4695.99
425.43	4669.37
425.64	5017.52
425.85	4988.85
426.06	4825.01
426.28	4970.42
426.49	4851.64
426.70	4872.12
426.91	4962.23
427.12	5068.72
427.33	4935.60
427.54	5017.52
427.75	5033.91
427.96	5038.00
428.17	5130.16
428.38	5164.98
428.59	5113.78
428.80	5226.42
429.01	5250.99
429.23	5287.86
429.44	5441.45
429.65	5203.89
429.86	5418.93
430.07	5402.54
430.28	5158.83
430.49	5502.89
430.70	5539.76
430.91	5423.02
431.12	5496.75
431.33	5752.74
431.54	5568.43
431.75	5621.67
431.96	5597.10
432.17	5611.43
432.38	5623.72
432.59	5904.29
432.80	5609.39
433.01	5912.49
433.22	5834.66
433.43	5832.62
433.64	5754.79
433.85	5765.03
434.06	5822.38
434.27	5865.38
434.49	5963.68
434.70	6150.05
434.91	6080.42
435.12	5873.57
435.33	6127.52
435.54	5902.25
435.75	5959.59
435.96	6113.19
436.17	6121.38
436.38	6274.98
436.59	6303.65
436.80	6244.26
437.01	6483.87
437.22	6416.29
437.43	6389.66
437.64	6066.08
437.85	6387.61
438.06	6514.59
438.27	6406.05
438.48	6356.90
438.69	6539.16
438.90	6381.47
439.11	6410.14
439.32	6455.20
439.53	6537.12
439.74	6639.51
439.95	6543.26
440.16	6604.70
440.37	6664.09
440.57	6516.64
440.78	6672.28
440.99	6774.68
441.20	6752.15
441.41	6649.75
441.62	6727.58
441.83	6602.65
442.04	6965.14
442.25	7010.20
442.46	6834.07
442.67	7178.13
442.88	7335.82
443.09	6963.09
443.30	6963.09
443.51	6832.02
443.72	7407.50
443.93	6905.75
444.14	7290.77
444.35	6856.60
444.56	7153.55
444.77	7126.93
444.98	7038.87
445.19	7237.52
445.40	7241.62
445.61	7276.43
445.81	7409.55
446.02	7325.58
446.23	7200.66
446.44	7155.60
446.65	7436.17
446.86	7378.83
447.07	7315.34
447.28	7706.51
447.49	7600.01
447.70	7384.98
447.91	7608.20
448.12	7694.22
448.33	7659.40
448.54	7688.07
448.74	7552.91
448.95	7671.69
449.16	7657.36
449.37	7929.74
449.58	7755.66
449.79	8083.33
450.00	7655.31
450.21	8019.85
450.42	8136.58
450.63	7878.54
450.84	8009.61
451.05	7966.60
451.25	8144.77
451.46	8030.09
451.67	7987.08
451.88	8124.29
452.09	8243.07
452.30	8150.92
452.51	8169.35
452.72	8144.77
452.93	8447.87
453.13	8257.41
453.34	8279.94
453.55	8462.21
453.76	8324.99
453.97	8853.37
454.18	8656.76
454.39	8605.56
454.60	8499.07
454.81	8710.01
455.01	8847.22
455.22	8525.69
455.43	8845.18
455.64	8994.68
455.85	8976.25
456.06	9080.69
456.27	8886.14
456.48	9090.93
456.68	9045.88
456.89	8916.86
457.10	9258.87
457.31	9269.11
457.52	9111.41
457.73	9301.87
457.94	9516.91
458.14	9160.56
458.35	9434.99
458.56	9365.36
458.77	9428.85
458.98	9502.58
459.19	9568.11
459.39	9555.82
459.60	10014.57
459.81	9639.79
460.02	10014.57
460.23	9717.61
460.44	10164.07
460.65	9924.46
460.85	10166.12
461.06	10092.39
461.27	9869.16
461.48	10495.84
461.69	10555.23
461.89	10096.49
462.10	10276.71
462.31	10110.82
462.52	10372.96
462.73	10299.23
462.94	10780.51
463.14	10760.03
463.35	10657.63
463.56	11059.03
463.77	10843.99
463.98	10770.27
464.18	10800.99
464.39	11061.08
464.60	11274.07
464.81	11186.01
465.02	11052.89
465.23	11431.76
465.43	11341.65
465.64	11679.57
465.85	11349.84
466.06	11317.08
466.27	11630.41
466.47	11562.83
466.68	11689.81
466.89	11513.68
467.10	12140.36
467.30	11536.21
467.51	11835.21
467.72	12164.93
467.93	11943.75
468.14	12144.45
468.34	12019.53
468.55	12416.83
468.76	12377.92
468.97	12273.48
469.17	12502.85
469.38	12480.32
469.59	12840.76
469.80	12519.23
470.01	12758.85
470.21	12724.03
470.42	13000.51
470.63	13094.71
470.84	12861.24
471.04	13221.69
471.25	13260.60
471.46	13270.84
471.67	13526.83
471.87	13365.04
472.08	13522.74
472.29	13977.39
472.50	13356.85
472.70	13649.71
472.91	13836.08
473.12	14143.27
473.33	13879.08
473.53	14063.40
473.74	14157.61
473.95	14489.38
474.16	14661.41
474.36	14669.60
474.57	14432.04
474.78	14915.36
474.99	14896.92
475.19	14728.99
475.40	15277.85
475.61	15345.43
475.81	15316.76
476.02	15660.82
476.23	15345.43
476.44	15828.75
476.64	15730.45
476.85	15990.54
477.06	15689.49
477.27	16283.40
477.47	16144.14
477.68	16213.77
477.89	16434.95
478.09	16449.28
478.30	16654.08
478.51	16631.55
478.71	16893.69
478.92	16860.93
479.13	17090.30
479.34	17137.40
479.54	17092.35
479.75	17207.03
479.96	17352.44
480.16	17323.77
480.37	17614.58
480.58	17811.18
480.78	17827.57
480.99	18145.00
481.20	18208.49
481.41	18390.76
481.61	18142.96
481.82	18403.05
482.03	18370.28
482.23	18419.43
482.44	18843.36
482.65	18837.22
482.85	18992.86
483.06	18941.66
483.27	19103.45
483.47	19277.53
483.68	19158.75
483.89	19599.06
484.09	19474.13
484.30	19795.67
484.51	19906.26
484.71	20119.24
484.92	20297.42
485.13	20403.91
485.33	20621.00
485.54	20455.11
485.75	20586.18
485.95	20678.34
486.16	20727.49
486.37	21223.10
486.57	21061.31
486.78	21028.54
486.98	21198.52
487.19	21397.18
487.40	21413.56
487.60	21534.39
487.81	21952.18
488.02	21917.36
488.22	21554.87
488.43	22036.14
488.64	22120.11
488.84	22204.08
489.05	22234.80
489.25	22220.46
489.46	22671.01
489.67	22507.18
489.87	22748.84
490.08	22714.02
490.29	22902.43
490.49	23006.88
490.70	23082.66
490.90	23236.25
491.11	23295.64
491.32	23707.29
491.52	23432.86
491.73	23518.87
491.94	23682.71
492.14	23725.72
492.35	24086.16
492.55	24116.88
492.76	24356.49
492.97	24610.44
493.17	24075.92
493.38	24735.37
493.58	24503.95
493.79	25056.90
494.00	24450.70
494.20	25112.19
494.41	25190.02
494.61	25022.08
494.82	25316.99
495.02	25181.82
495.23	25599.61
495.44	25466.49
495.64	25409.15
495.85	25538.17
496.05	25835.13
496.26	25835.13
496.47	25927.28
496.67	25874.04
496.88	26279.54
497.08	25857.65
497.29	26347.12
497.49	26336.88
497.70	26752.62
497.91	26697.32
498.11	26601.07
498.32	26885.73
498.52	26873.45
498.73	27160.16
498.93	27151.97
499.14	27180.64
499.34	27338.33
499.55	27332.19
499.76	27280.99
499.96	27313.76
500.17	27407.97
500.37	27813.46
500.58	27752.02
500.78	27792.98
500.99	27928.15
501.19	28487.25
501.40	28128.85
501.60	27975.25
501.81	28024.40
502.02	28575.31
502.22	28227.15
502.43	28585.55
502.63	28446.29
502.84	28870.22
503.04	28520.01
503.25	28902.98
503.45	28841.54
503.66	29558.33
503.86	29134.40
504.07	29482.56
504.27	29113.92
504.48	29539.90
504.68	29097.54
504.89	29429.31
505.09	29881.91
505.30	29685.31
505.50	29652.54
505.71	29828.66
505.91	29992.50
506.12	29908.54
506.32	29957.69
506.53	30203.44
506.73	30215.73
506.94	30354.99
507.14	30170.68
507.35	30391.86
507.55	30377.52
507.76	30871.08
507.96	30678.57
508.17	30533.17
508.37	31075.88
508.58	30834.22
508.78	30555.69
508.99	31122.98
509.19	30713.39
509.40	30897.70
509.60	31088.17
509.81	30936.62
510.01	30924.33
510.22	31321.63
510.42	31491.62
510.63	31505.95
510.83	31305.25
511.04	31755.80
511.24	31567.39
511.44	31227.43
511.65	31854.11
511.85	31520.29
512.06	31608.35
512.26	32024.09
512.47	32001.56
512.67	32159.25
512.88	32151.06
513.08	31764.00
513.29	31933.98
513.49	32218.64
513.69	32106.01
513.90	32390.67
514.10	32364.05
514.31	32574.99
514.51	33021.45
514.72	32351.76
514.92	32757.26
515.13	32771.60
515.33	32882.19
515.53	32728.59
515.74	32824.84
515.94	32884.23
516.15	33304.07
516.35	32992.78
516.56	33465.86
516.76	32871.95
516.96	33252.87
517.17	33451.52
517.37	33422.85
517.58	33578.50
517.78	33539.58
517.99	34024.95
518.19	33783.29
518.39	33924.60
518.60	33785.34
518.80	33777.15
519.01	34164.21
519.21	34076.15
519.41	34330.10
519.62	34483.70
519.82	34395.64
520.03	34751.98
520.23	34424.31
520.43	34176.50
520.64	34821.61
520.84	34780.65
521.05	34571.76
521.25	35177.96
521.45	34971.11
521.66	35018.22
521.86	34876.91
522.07	35362.28
522.27	35108.33
522.47	35268.07
522.68	35968.48
522.88	35571.17
523.08	35964.38
523.29	35788.25
523.49	35769.82
523.70	36361.69
523.90	36148.70
524.10	36171.22
524.31	36206.04
524.51	36335.06
524.71	36472.28
524.92	36568.53
525.12	36763.09
525.33	36378.07
525.53	36840.91
525.73	36580.82
525.94	36799.95
526.14	36814.29
526.34	37361.09
526.55	37248.46
526.75	37062.09
526.95	37088.71
527.16	37307.85
527.36	37146.06
527.56	37467.59
527.77	37766.59
527.97	37676.48
528.17	37529.03
528.38	37854.65
528.58	38161.85
528.78	38172.09
528.99	38139.32
529.19	38567.35
529.39	38112.70
529.60	39060.91
529.80	38358.45
530.00	38636.98
530.21	38280.63
530.41	38792.62
530.61	38954.41
530.82	38868.40
531.02	39105.96
531.22	39292.33
531.43	39253.42
531.63	38921.65
531.83	39706.02
532.04	39871.90
532.24	39439.78
532.44	39912.86
532.64	40209.82
532.85	40314.26
533.05	39947.68
533.25	40299.93
533.46	40308.12
533.66	40834.45
533.86	40539.54
534.07	41069.97
534.27	40611.22
534.47	41186.70
534.67	40744.34
534.88	41035.15
535.08	40770.96
535.28	41293.19
535.49	41393.54
535.69	41409.93
535.89	41397.64
536.09	41332.11
536.30	41788.80
536.50	41698.69
536.70	41880.96
536.91	41940.35
537.11	42026.37
537.31	42089.85
537.51	41936.26
537.72	42507.64
537.92	42419.58
538.12	42945.90
538.32	42671.48
538.53	42925.42
538.73	42427.77
538.93	42835.31
539.13	42618.23
539.34	42988.91
539.54	43117.93
539.74	43226.48
539.94	43500.90
540.15	43097.45
540.35	43492.71
540.55	43267.44
540.75	43502.95
540.96	43685.22
541.16	43664.74
541.36	43779.43
541.56	43736.42
541.77	44221.79
541.97	44000.61
542.17	44139.87
542.37	44283.23
542.58	44272.99
542.78	44379.48
542.98	44189.02
543.18	44674.39
543.38	44811.60
543.59	44615.00
543.79	44338.52
543.99	44442.97
544.19	45135.18
544.40	44719.45
544.60	44981.59
544.80	44942.67
545.00	45210.96
545.20	45305.16
545.41	45180.24
545.61	45731.14
545.81	45382.99
546.01	45415.76
546.21	45980.99
546.42	45575.50
546.62	46005.57
546.82	45227.34
547.02	45708.61
547.22	46089.54
547.43	45454.67
547.63	46112.06
547.83	46118.21
548.03	45919.56
548.23	46148.93
548.44	45929.80
548.64	46095.68
548.84	46640.44
549.04	46398.78
549.24	46523.71
549.45	46335.29
549.65	46247.23
549.85	46368.06
550.05	46931.25
550.25	46464.32
550.45	47011.12
550.66	46720.31
550.86	46966.07
551.06	47150.38
551.26	46929.20
551.46	47424.81
551.66	47191.34
551.87	46732.60
552.07	47047.99
552.27	47117.62
552.47	47166.77
552.67	47600.94
552.87	47109.43
553.07	47250.74
553.28	47521.07
553.48	47437.10
553.68	47207.73
553.88	47701.29
554.08	47574.31
554.28	47895.85
554.48	47531.31
554.69	48133.41
554.89	47562.03
555.09	47830.31
555.29	47639.85
555.49	48041.25
555.69	47742.25
555.89	47897.89
556.10	48170.27
556.30	47988.00
556.50	48069.92
556.70	47965.48
556.90	48200.99
557.10	48026.92
557.30	47717.67
557.50	48190.75
557.70	48555.29
557.91	48545.05
558.11	48354.59
558.31	48522.52
558.51	48592.15
558.71	48561.44
558.91	48876.82
559.11	48260.38
559.31	48391.45
559.51	48508.19
559.72	48422.17
559.92	48784.66
560.12	48276.77
560.32	48973.08
560.52	48569.63
560.72	48753.94
560.92	48682.27
561.12	48551.20
561.32	49622.28
561.52	48674.07
561.72	49349.90
561.93	49480.97
562.13	49220.88
562.33	48590.11
562.53	49460.49
562.73	49108.24
562.93	49067.28
563.13	49224.98
563.33	48803.10
563.53	49171.73
563.73	49175.83
563.93	49454.35
564.13	49769.74
564.33	49378.57
564.53	49263.89
564.74	49757.45
564.94	49196.31
565.14	49337.62
565.34	49513.74
565.54	49460.49
565.74	49589.52
565.94	49847.56
566.14	49509.64
566.34	49200.40
566.54	50242.82
566.74	49167.63
566.94	49720.59
567.14	49687.82
567.34	49747.21
567.54	49583.37
567.74	49698.06
567.94	49478.92
568.14	50455.81
568.34	49919.24
568.54	49902.85
568.74	50044.16
568.94	49956.10
569.14	49865.99
569.34	50136.32
569.54	50136.32
569.75	49622.28
569.95	50251.01
570.15	50726.14
570.35	50314.50
570.55	50142.47
570.75	50390.27
570.95	50322.69
571.15	50615.55
571.35	50578.68
571.55	51127.54
571.75	50269.44
571.95	50806.01
572.15	50607.36
572.35	50849.02
572.55	50541.82
572.75	50853.11
572.95	50648.32
573.15	50564.35
573.35	50787.58
573.55	50932.98
573.75	50707.71
573.95	51008.76
574.15	50908.41
574.35	51258.61
574.55	50998.52
574.75	51498.22
574.95	51195.12
575.15	51107.06
575.34	51008.76
575.54	51502.32
575.74	51571.95
575.94	51363.06
576.14	51379.44
576.34	51418.35
576.54	51668.20
576.74	51569.90
576.94	51866.86
577.14	51612.91
577.34	51696.88
577.54	51582.19
577.74	51485.93
577.94	51829.99
578.14	51762.41
578.34	52186.34
578.54	51530.99
578.74	51819.75
578.94	52114.66
579.14	52319.46
579.34	51735.79
579.54	51748.07
579.74	52262.11
579.94	52335.84
580.13	52571.36
580.33	52376.80
580.53	52212.96
580.73	52270.31
580.93	52245.73
581.13	52778.20
581.33	52593.89
581.53	52655.32
581.73	52802.78
581.93	52968.66
582.13	52475.10
582.33	52915.42
582.53	52720.86
582.73	52763.87
582.92	52694.24
583.12	52796.63
583.32	52958.42
583.52	52810.97
583.72	53230.80
583.92	52886.74
584.12	52821.21
584.32	53386.45
584.52	53167.32
584.72	53253.33
584.92	53568.72
585.11	53667.02
585.31	53343.44
585.51	53497.04
585.71	53368.02
585.91	53843.15
586.11	53322.96
586.31	53275.86
586.51	53257.43
586.71	53664.97
586.91	53685.45
587.10	53900.49
587.30	53853.39
587.50	53734.60
587.70	53591.25
587.90	53880.01
588.10	54033.61
588.30	53941.45
588.50	54226.12
588.69	54054.09
588.89	54103.24
589.09	53902.54
589.29	54080.71
589.49	54338.75
589.69	54277.32
589.89	54303.94
590.08	54187.21
590.28	54121.67
590.48	54394.05
590.68	54047.94
590.88	54539.46
591.08	54035.66
591.28	54222.02
591.47	54633.66
591.67	54138.05
591.87	54207.68
592.07	54373.57
592.27	54652.09
592.47	54561.98
592.67	54891.71
592.86	54711.49
593.06	54357.19
593.26	54885.56
593.46	54693.05
593.66	54613.18
593.86	54578.37
594.05	54623.42
594.25	55219.38
594.45	54588.61
594.65	54828.22
594.85	54467.78
595.05	55092.41
595.24	54850.75
595.44	55051.45
595.64	55278.77
595.84	55114.94
596.04	55360.69
596.23	55143.61
596.43	55426.23
596.63	55030.97
596.83	54801.60
597.03	55243.96
597.22	55522.48
597.42	55200.95
597.62	55616.69
597.82	55846.06
598.02	55289.01
598.21	55829.68
598.41	55188.66
598.61	55688.37
598.81	55737.52
599.01	55696.56
599.20	55803.05
599.40	55553.20
599.60	55712.94
599.80	56075.43
600.00	56134.82
600.19	56001.71
600.39	55839.92
600.59	56100.01
600.79	56030.38
600.98	56149.16
601.18	56216.74
601.38	55839.92
601.58	56562.85
601.78	56325.28
601.97	56532.13
602.17	56700.06
602.37	56564.90
602.57	56605.86
602.76	56929.44
602.96	56386.72
603.16	56921.24
603.36	56083.62
603.55	56827.04
603.75	56446.11
603.95	56550.56
604.15	56698.01
604.34	56755.36
604.54	56442.02
604.74	57273.49
604.94	57044.12
605.13	56816.80
605.33	56851.61
605.53	56757.41
605.73	57463.96
605.92	57400.47
606.12	57148.57
606.32	57599.12
606.52	57257.11
606.71	57255.06
606.91	57332.89
607.11	57257.11
607.30	57025.69
607.50	57216.15
607.70	57371.80
607.90	57552.02
608.09	56868.00
608.29	57435.28
608.49	57740.43
608.68	57459.86
608.88	57474.20
609.08	57330.84
609.28	57681.04
609.47	57085.08
609.67	57851.02
609.87	57404.56
610.06	57754.77
610.26	57767.05
610.46	57674.90
610.66	57926.80
610.85	57599.12
611.05	57482.39
611.25	57656.46
611.44	57621.65
611.64	57607.31
611.84	57500.82
612.03	57666.70
612.23	58129.54
612.43	57900.17
612.62	57527.44
612.82	57947.28
613.02	58010.76
613.21	57971.85
613.41	57928.84
613.61	58141.83
613.80	57222.29
614.00	57611.41
614.20	57715.86
614.39	57881.74
614.59	57722.00
614.79	58061.96
614.98	57918.60
615.18	57349.27
615.38	57973.90
615.57	57496.72
615.77	57455.76
615.97	57662.61
616.16	57451.67
616.36	57715.86
616.56	57937.04
616.75	57703.57
616.95	57789.58
617.15	57382.04
617.34	57963.66
617.54	57040.03
617.74	57998.48
617.93	57463.96
618.13	57158.81
618.32	57492.63
618.52	57386.13
618.72	57300.12
618.91	57672.85
619.11	57158.81
619.31	57713.81
619.50	57502.87
619.70	57267.35
619.90	57635.98
620.09	57400.47
620.29	57629.84
620.48	57377.94
620.68	57812.11
620.88	57181.34
621.07	57674.90
621.27	57431.19
621.46	57191.58
621.66	57218.20
621.86	57267.35
622.05	56806.56
622.25	57218.20
622.44	56968.35
622.64	56931.48
622.84	57453.72
623.03	57181.34
623.23	57152.66
623.42	56724.64
623.62	57355.41
623.82	57314.45
624.01	57078.94
624.21	56863.90
624.40	56966.30
624.60	57300.12
624.80	57140.38
624.99	56837.28
625.19	56726.69
625.38	57259.16
625.58	57304.21
625.77	56843.42
625.97	56976.54
626.17	56689.82
626.36	56906.91
626.56	56822.94
626.75	56366.24
626.95	56759.45
627.14	56872.09
627.34	57093.27
627.54	56652.96
627.73	56642.72
627.93	56548.51
628.12	56384.68
628.32	56925.34
628.51	56499.36
628.71	56603.81
628.90	56661.15
629.10	56599.71
629.30	56716.45
629.49	56837.28
629.69	56839.32
629.88	56628.38
630.08	56788.13
630.27	56513.70
630.47	56919.20
630.66	56505.51
630.86	57011.35
631.05	56444.07
631.25	56892.57
631.44	56802.46
631.64	56915.10
631.84	56882.33
632.03	57093.27
632.23	56480.93
632.42	57322.65
632.62	56773.79
632.81	56435.87
633.01	56671.39
633.20	56435.87
633.40	56456.35
633.59	56863.90
633.79	55938.22
633.98	56439.97
634.18	56794.27
634.37	56544.42
634.57	56618.14
634.76	56859.80
634.96	56835.23
635.15	56976.54
635.35	56341.67
635.54	56372.39
635.74	56372.39
635.93	56128.68
636.13	57037.98
636.32	56458.40
636.52	56026.28
636.71	56499.36
636.91	56480.93
637.10	56890.52
637.30	56272.04
637.49	56257.70
637.69	56134.82
637.88	56951.96
638.08	56521.89
638.27	56542.37
638.46	56419.49
638.66	56153.26
638.85	56337.57
639.05	56407.20
639.24	56661.15
639.44	56288.42
639.63	56380.58
639.83	56261.80
640.02	56130.73
640.22	56308.90
640.41	56456.35
640.61	55710.89
640.80	56515.75
640.99	56448.16
641.19	56677.54
641.38	56525.99
641.58	56036.52
641.77	56085.67
641.97	56288.42
642.16	56110.25
642.36	56276.13
642.55	56814.75
642.74	55809.20
642.94	56626.34
643.13	56104.10
643.33	56231.08
643.52	56292.52
643.72	56315.04
643.91	56276.13
644.10	56509.60
644.30	56366.24
644.49	56126.63
644.69	56276.13
644.88	56548.51
645.08	56032.42
645.27	56269.99
645.46	55968.94
645.66	56679.58
645.85	56036.52
646.05	56474.79
646.24	56313.00
646.43	56345.76
646.63	56417.44
646.82	56214.69
647.02	56562.85
647.21	56614.05
647.40	56603.81
647.60	56704.16
647.79	56722.59
647.99	56546.47
648.18	56491.17
648.37	56519.84
648.57	56890.52
648.76	56525.99
648.96	56308.90
649.15	56747.17
649.34	56822.94
649.54	56552.61
649.73	56347.81
649.92	56675.49
650.12	56259.75
650.31	56681.63
650.51	56167.59
650.70	56609.95
650.89	56509.60
651.09	56911.00
651.28	56583.33
651.47	56747.17
651.67	56519.84
651.86	56837.28
652.06	56005.80
652.25	56388.77
652.44	56478.88
652.64	56558.75
652.83	56067.24
653.02	56108.20
653.22	56581.28
653.41	55995.56
653.60	56278.18
653.80	56032.42
653.99	56663.20
654.18	56063.14
654.38	56243.37
654.57	56153.26
654.76	56024.23
654.96	56431.78
655.15	56534.18
655.34	56022.19
655.54	55946.41
655.73	56474.79
655.92	56286.37
656.12	56315.04
656.31	56126.63
656.50	55731.37
656.70	56482.98
656.89	56267.94
657.08	56032.42
657.28	56497.31
657.47	56358.05
657.66	56671.39
657.86	56048.81
658.05	56411.30
658.24	56214.69
658.43	56077.48
658.63	55825.58
658.82	56337.57
659.01	56394.92
659.21	56587.42
659.40	56171.69
659.59	55925.93
659.79	56577.18
659.98	56136.87
660.17	56435.87
660.36	56235.17
660.56	56292.52
660.75	55964.84
660.94	55669.93
661.14	56177.83
661.33	56255.65
661.52	55643.31
661.71	56894.62
661.91	55944.36
662.10	55710.89
662.29	56147.11
662.49	55766.19
662.68	56093.86
662.87	56194.21
663.06	56161.45
663.26	55870.64
663.45	55934.12
663.64	55841.96
663.83	56296.61
664.03	55944.36
664.22	55930.03
664.41	55512.24
664.60	55913.64
664.80	55907.50
664.99	55663.79
665.18	55927.98
665.37	55825.58
665.57	55770.28
665.76	56034.47
665.95	55590.06
666.14	55631.02
666.34	55835.82
666.53	55807.15
666.72	55620.78
666.91	56011.95
667.11	55502.00
667.30	55917.74
667.49	55860.40
667.68	55465.14
667.87	55444.66
668.07	56181.93
668.26	55293.11
668.45	55596.21
668.64	55082.17
668.84	55745.71
669.03	55991.47
669.22	55137.46
669.41	55561.39
669.60	55579.82
669.80	55401.65
669.99	55741.61
670.18	55415.99
670.37	55266.48
670.57	55841.96
670.76	55110.84
670.95	55387.31
671.14	55127.22
671.33	54537.41
671.53	55737.52
671.72	55112.89
671.91	55368.88
672.10	55102.65
672.29	54791.36
672.48	55188.66
672.68	55350.45
672.87	55207.09
673.06	55139.51
673.25	54990.01
673.44	54969.53
673.64	55409.84
673.83	55252.15
674.02	55180.47
674.21	54957.24
674.40	55321.78
674.59	54736.06
674.79	54678.72
674.98	54697.15
675.17	54600.89
675.36	54842.56
675.55	55159.99
675.74	54949.05
675.94	54727.87
676.13	54559.94
676.32	54877.37
676.51	54846.65
676.70	54963.39
676.89	55051.45
677.08	54838.46
677.28	54269.12
677.47	54869.18
677.66	54590.66
677.85	54834.36
678.04	54318.28
678.23	54875.32
678.42	54541.50
678.62	54619.33
678.81	54621.37
679.00	54183.11
679.19	54611.13
679.38	54600.89
679.57	54383.81
679.76	54275.27
679.96	54916.28
680.15	54627.52
680.34	54412.48
680.53	54285.51
680.72	54574.27
680.91	54725.82
681.10	53785.80
681.29	54504.64
681.48	53986.50
681.68	54101.19
681.87	53650.64
682.06	53900.49
682.25	53671.12
682.44	53765.32
682.63	54146.25
682.82	53888.20
683.01	53681.36
683.20	53343.44
683.39	53732.56
683.59	53363.92
683.78	53431.50
683.97	53298.39
684.16	53615.82
684.35	53423.31
684.54	53822.67
684.73	53540.05
684.92	53308.63
685.11	53069.01
685.30	53689.55
685.49	53380.31
685.69	52997.34
685.88	53654.73
686.07	53206.23
686.26	53130.45
686.45	53347.54
686.64	52923.61
686.83	53228.76
687.02	53290.19
687.21	53513.42
687.40	53224.66
687.59	53019.86
687.78	53304.53
687.97	53050.58
688.16	53054.68
688.35	52720.86
688.54	52223.20
688.74	52751.58
688.93	52901.08
689.12	52552.93
689.31	52710.62
689.50	52851.93
689.69	52614.37
689.88	52419.81
690.07	52235.49
690.26	52632.80
690.45	52716.76
690.64	52423.90
690.83	52729.05
691.02	52503.77
691.21	51971.30
691.40	52378.85
691.59	52866.27
691.78	52532.45
691.97	52522.21
692.16	52030.69
692.35	52722.91
692.54	52540.64
692.73	52411.62
692.92	52147.43
693.11	51850.47
693.30	52004.07
693.49	51836.14
693.68	52022.50
693.87	51948.78
694.06	52042.98
694.25	51887.34
694.44	51649.77
694.63	51942.63
694.82	51911.91
695.01	51410.16
695.20	51598.57
695.39	51399.92
695.58	51784.94
695.77	51412.21
695.96	50996.47
696.15	51586.28
696.34	51268.85
696.53	51352.82
696.72	51524.85
696.91	51719.40
697.10	51436.78
697.29	51092.72
697.48	51197.17
697.67	51094.77
697.86	50713.85
698.05	50961.65
698.24	51109.11
698.43	50482.43
698.62	51086.58
698.81	50656.51
699.00	51045.62
699.19	50519.29
699.38	50918.65
699.57	50582.78
699.76	50803.96
699.95	50822.39
700.14	50824.44
700.32	50388.22
700.51	50552.06
700.70	50932.98
700.89	50449.66
701.08	50746.62
701.27	50416.89
701.46	50701.56
701.65	50187.52
701.84	50470.14
702.03	50296.06
702.22	50179.33
702.41	49960.20
702.60	50025.73
702.79	50050.31
702.98	50138.37
703.17	50142.47
703.35	49927.43
703.54	49956.10
703.73	50201.86
703.92	50154.75
704.11	49954.05
704.30	49523.98
704.49	49712.39
704.68	49579.28
704.87	49642.76
705.06	49646.86
705.25	49698.06
705.43	49564.94
705.62	49792.26
705.81	49376.53
706.00	49667.34
706.19	49384.72
706.38	49339.66
706.57	49196.31
706.76	49052.95
706.95	49575.18
707.14	48862.49
707.32	49104.15
707.51	48807.19
707.70	48923.93
707.89	48983.32
708.08	48944.41
708.27	48987.41
708.46	49407.25
708.65	48698.65
708.84	49036.56
709.02	48889.11
709.21	48973.08
709.40	48811.29
709.59	48872.73
709.78	48346.40
709.97	49034.52
710.16	48659.74
710.34	48420.13
710.53	48307.49
710.72	48280.86
710.91	47971.62
711.10	48225.57
711.29	48573.72
711.48	48487.71
711.66	48096.55
711.85	48002.34
712.04	48160.03
712.23	48250.14
712.42	47770.92
712.61	48448.80
712.80	47990.05
712.98	47793.45
713.17	48006.44
713.36	48287.01
713.55	47672.62
713.74	47463.72
713.93	47545.64
714.11	47465.77
714.30	47668.52
714.49	47269.17
714.68	47349.04
714.87	47682.86
715.06	47650.09
715.24	47322.41
715.43	47330.61
715.62	47154.48
715.81	47281.45
716.00	47725.86
716.18	47062.32
716.37	46927.16
716.56	47035.70
716.75	47154.48
716.94	46859.57
717.12	46828.85
717.31	47152.43
717.50	47101.23
717.69	46740.79
717.88	46716.22
718.06	46677.30
718.25	46753.08
718.44	46517.56
718.63	46146.88
718.82	46404.92
719.00	46306.62
719.19	46210.37
719.38	46187.84
719.57	46009.67
719.76	45872.45
719.94	45821.25
720.13	45528.39
720.32	45827.40
720.51	45653.32
720.69	45831.49
720.88	45677.90
721.07	45514.06
721.26	45282.64
721.44	45591.88
721.63	45380.94
721.82	45278.54
722.01	45278.54
722.20	45219.15
722.38	45512.01
722.57	44678.49
722.76	45008.21
722.95	44916.05
723.13	45020.50
723.32	45002.07
723.51	44774.74
723.70	44406.11
723.88	44795.22
724.07	44377.43
724.26	44805.46
724.44	43791.72
724.63	44744.02
724.82	44893.52
725.01	44336.48
725.19	44379.48
725.38	44496.22
725.57	44086.62
725.76	44328.28
725.94	44164.45
726.13	44103.01
726.32	44131.68
726.51	44103.01
726.69	44586.33
726.88	44266.84
727.07	44260.70
727.25	44215.65
727.44	43816.29
727.63	44039.52
727.82	44023.14
728.00	44262.75
728.19	43973.98
728.38	44031.33
728.56	43937.12
728.75	44098.91
728.94	43681.13
729.12	43736.42
729.31	44045.66
729.50	43830.63
729.69	43822.44
729.87	43435.37
730.06	43605.35
730.25	44066.14
730.43	43945.31
730.62	43724.13
730.81	43967.84
730.99	43656.55
731.18	43545.96
731.37	43335.02
731.55	43713.89
731.74	43933.03
731.93	43638.12
732.11	43660.65
732.30	43521.38
732.49	43298.16
732.67	43521.38
732.86	43701.61
733.05	43636.07
733.23	42933.62
733.42	43193.71
733.61	43249.00
733.79	43357.55
733.98	43517.29
734.17	43322.73
734.35	43212.14
734.54	43273.58
734.73	43470.18
734.91	43206.00
735.10	43062.64
735.29	43365.74
735.47	42857.84
735.66	42763.64
735.84	42823.03
736.03	42694.00
736.22	43269.48
736.40	42894.71
736.59	43070.83
736.78	43076.97
736.96	43003.25
737.15	42952.05
737.33	42767.73
737.52	42818.93
737.71	42857.84
737.89	42585.46
738.08	42665.33
738.27	42517.88
738.45	43173.23
738.64	42321.27
738.82	42360.19
739.01	42683.76
739.20	42179.96
739.38	42462.58
739.57	42993.01
739.75	42448.25
739.94	42036.61
740.13	42440.06
740.31	42513.78
740.50	42134.91
740.68	42143.10
740.87	42182.01
741.06	42114.43
741.24	41651.59
741.43	41604.49
741.61	42145.15
741.80	41637.25
741.99	41921.92
742.17	41987.46
742.36	42050.94
742.54	41776.51
742.73	42003.84
742.91	42091.90
743.10	41788.80
743.29	41960.83
743.47	42038.65
743.66	41452.94
743.84	41713.03
744.03	41926.02
744.21	41573.77
744.40	42044.80
744.59	41194.89
744.77	41438.60
744.96	41549.19
745.14	41536.90
745.33	41520.52
745.51	40899.98
745.70	41375.11
745.88	40965.52
746.07	41155.98
746.26	40867.22
746.44	40992.14
746.63	41272.71
746.81	41225.61
747.00	41047.44
747.18	41104.78
747.37	41166.22
747.55	40895.89
747.74	41180.56
747.92	40750.48
748.11	40703.38
748.29	40658.32
748.48	41088.40
748.66	40639.89
748.85	40619.41
749.03	40990.09
749.22	40928.66
749.41	40555.93
749.59	40553.88
749.78	40105.37
749.96	40179.10
750.15	40277.40
750.33	40375.70
750.52	40353.18
750.70	40297.88
750.89	40144.28
751.07	40025.50
751.26	40043.93
751.44	40099.23
751.63	39923.10
751.81	39876.00
752.00	39908.77
752.18	39921.05
752.37	39888.29
752.55	39699.87
752.74	39855.52
752.92	39687.59
753.10	39597.48
753.29	39701.92
753.47	39452.07
753.66	39167.40
753.84	39703.97
754.03	39411.11
754.21	39503.27
754.40	39820.70
754.58	39447.97
754.77	39325.10
754.95	39263.66
755.14	39372.20
755.32	39103.92
755.51	38888.88
755.69	38956.46
755.88	38665.65
756.06	38923.69
756.24	38974.89
756.43	38712.75
756.61	39128.49
756.80	39165.35
756.98	38618.55
757.17	39151.02
757.35	38696.37
757.54	38475.19
757.72	39034.28
757.90	38659.51
758.09	38602.16
758.27	38835.63
758.46	37946.81
758.64	38639.03
758.83	38944.17
759.01	38340.02
759.19	38792.62
759.38	38301.11
759.56	38317.50
759.75	38428.09
759.93	38329.78
760.12	38491.57
760.30	38198.71
760.48	38286.78
760.67	37952.96
760.85	38165.95
761.04	38340.02
761.22	38167.99
761.40	38067.64
761.59	38135.23
761.77	37696.96
761.96	38065.60
762.14	37852.61
762.32	37383.62
762.51	37553.60
762.69	37963.20
762.88	37637.57
763.06	37524.93
763.24	37533.12
763.43	37957.05
763.61	37615.04
763.80	37580.23
763.98	37395.91
764.16	37705.15
764.35	37178.82
764.53	36754.90
764.72	37438.92
764.90	37252.55
765.08	37066.19
765.27	37477.83
765.45	37047.75
765.63	36687.31
765.82	37182.92
766.00	36705.74
766.18	36855.25
766.37	37119.43
766.55	36761.04
766.74	36699.60
766.92	36709.84
767.10	36711.89
767.29	36419.03
767.47	35909.08
767.65	36830.67
767.84	36279.77
768.02	36525.52
768.20	36290.01
768.39	36058.59
768.57	36341.21
768.75	36261.33
768.94	36210.14
769.12	35952.09
769.30	35780.06
769.49	36238.81
769.67	36060.63
769.85	35454.44
770.04	35904.99
770.22	36109.78
770.40	35569.12
770.59	35397.09
770.77	35497.44
770.95	35849.69
771.14	35454.44
771.32	35526.11
771.50	35509.73
771.69	35239.40
771.87	35806.69
772.05	35243.49
772.24	35122.66
772.42	35032.55
772.60	35347.94
772.78	34684.40
772.97	34926.06
773.15	35149.29
773.33	34848.24
773.52	35016.17
773.70	34924.01
773.88	35290.60
774.07	35272.17
774.25	35087.85
774.43	35137.00
774.61	35255.78
774.80	35380.71
774.98	35038.70
775.16	35356.13
775.34	35194.34
775.53	35018.22
775.71	35044.84
775.89	34921.96
776.08	35059.18
776.26	35100.14
776.44	35116.52
776.62	34831.85
776.81	35141.10
776.99	34956.78
777.17	35272.17
777.35	34735.60
777.54	35284.45
777.72	34926.06
777.90	35382.76
778.08	35237.35
778.27	35186.15
778.45	35233.25
778.63	35190.25
778.81	34860.52
779.00	35728.86
779.18	35302.89
779.36	35493.35
779.54	34934.25
779.73	35182.06
779.91	35612.13
780.09	35395.04
780.27	35575.27
780.46	35134.95
780.64	35530.21
780.82	35360.23
781.00	35436.00
781.19	35552.74
781.37	35720.67
781.55	35474.91
781.73	35513.83
781.91	35646.94
782.10	35407.33
782.28	35562.98
782.46	35507.68
782.64	35343.84
782.82	35253.73
783.01	35427.81
783.19	35325.41
783.37	35489.25
783.55	35112.42
783.74	35671.52
783.92	35499.49
784.10	35233.25
784.28	35501.54
784.46	35319.27
784.64	35155.43
784.83	35319.27
785.01	35161.58
785.19	35276.26
785.37	35409.38
785.55	35153.38
785.74	35309.03
785.92	35431.91
786.10	35419.62
786.28	35337.70
786.46	35048.94
786.64	34893.29
786.83	35042.79
787.01	35190.25
787.19	34780.65
787.37	35116.52
787.55	34616.82
787.74	35194.34
787.92	35167.72
788.10	34672.11
788.28	34692.59
788.46	34850.28
788.64	34770.41
788.82	34907.63
789.01	34547.18
789.19	34862.57
789.37	34409.97
789.55	34747.89
789.73	34215.41
789.91	34360.82
790.09	33998.33
790.28	34084.34
790.46	34326.00
790.64	34545.14
790.82	33959.42
791.00	34094.58
791.18	33693.18
791.36	33836.54
791.55	33705.47
791.73	33705.47
791.91	33441.28
792.09	33658.37
792.27	33263.11
792.45	33904.12
792.63	33619.46
792.81	33469.95
793.00	33402.37
793.18	33080.84
793.36	33084.94
793.54	32914.95
793.72	33371.65
793.90	33082.89
794.08	32886.28
794.26	32914.95
794.44	32628.24
794.62	32495.12
794.81	32757.26
794.99	32413.20
795.17	32189.97
795.35	32042.52
795.53	32546.32
795.71	32468.50
795.89	31718.94
796.07	32280.08
796.25	31870.49
796.43	31727.13
796.61	31665.69
796.80	31831.58
796.98	31684.12
797.16	31204.90
797.34	31667.74
797.52	31673.88
797.70	31530.53
797.88	31653.40
798.06	31417.89
798.24	31452.70
798.42	31458.85
798.60	31325.73
798.78	31039.01
798.96	31094.31
799.14	31122.98
799.32	31151.65
799.51	30866.98
799.69	31077.93
799.87	30563.89
800.05	30506.54
800.23	30879.27
800.41	30283.31
800.59	30522.93
800.77	30465.58
800.95	30094.90
801.13	30422.58
801.31	30144.05
801.49	30062.13
801.67	29863.48
801.85	30053.94
802.03	30008.89
802.21	29773.37
802.39	29849.14
802.57	29328.96
802.75	29505.09
802.93	29312.58
803.11	29648.44
803.29	29212.23
803.47	29185.60
803.65	29447.74
803.83	29462.08
804.01	29417.02
804.19	28851.78
804.37	28671.56
804.55	28919.37
804.73	28984.90
804.91	28837.45
805.09	28915.27
805.27	28782.15
805.45	28597.84
805.63	28862.02
805.81	28370.51
805.99	28603.98
806.17	28333.65
806.35	28315.22
806.53	28214.87
806.71	28163.67
806.89	28161.62
807.07	28024.40
807.25	28030.55
807.43	27971.16
807.61	28225.11
807.79	28139.09
807.97	27846.23
808.15	27991.64
808.33	27508.32
808.51	27870.81
808.69	27590.24
808.87	27266.66
809.05	27272.80
809.23	27373.15
809.41	27035.24
809.59	27172.45
809.77	27199.07
809.95	27035.24
810.13	27020.90
810.31	27092.58
810.49	26883.69
810.67	27025.00
810.84	27016.80
811.02	26908.26
811.20	26783.34
811.38	26492.52
811.56	26566.25
811.74	26695.27
811.92	26609.26
812.10	26340.97
812.28	26424.94
812.46	26244.72
812.64	26521.20
812.82	25996.92
813.00	26449.52
813.18	26355.31
813.36	26214.00
813.53	25919.09
813.71	26144.37
813.89	26015.35
814.07	25759.35
814.25	26093.17
814.43	25695.86
814.61	25777.78
814.79	25702.01
814.97	25433.72
815.15	25708.15
815.33	25441.92
815.50	25224.83
815.68	25679.48
815.86	25618.04
816.04	25355.90
816.22	25237.12
816.40	25579.13
816.58	25280.13
816.76	25292.41
816.94	25187.97
817.11	25155.20
817.29	25091.71
817.47	25005.70
817.65	24835.72
817.83	24927.88
818.01	24796.81
818.19	24426.12
818.37	24745.61
818.54	24622.73
818.72	24325.77
818.90	24813.19
819.08	24622.73
819.26	24448.65
819.44	24125.07
819.62	24348.30
819.80	24579.72
819.97	24487.56
820.15	24290.96
820.33	24264.33
820.51	24387.21
820.69	23801.49
820.87	24319.63
821.05	24454.79
821.22	24268.43
821.40	24213.13
821.58	24051.34
821.76	24194.70
821.94	23813.78
822.12	24012.43
822.29	24022.67
822.47	24075.92
822.65	23944.85
822.83	23858.84
823.01	23838.36
823.19	23760.53
823.36	23774.87
823.54	23379.61
823.72	23375.52
823.90	23482.01
824.08	23129.76
824.25	23367.32
824.43	23279.26
824.61	23346.84
824.79	23320.22
824.97	23168.67
825.15	23361.18
825.32	23156.38
825.50	23135.90
825.68	22955.68
825.86	23166.62
826.04	23006.88
826.21	22841.00
826.39	22832.80
826.57	22601.38
826.75	22654.63
826.93	23043.74
827.10	22787.75
827.28	22869.67
827.46	22828.71
827.64	22611.62
827.81	22382.25
827.99	22767.27
828.17	22443.69
828.35	22677.16
828.53	22541.99
828.70	22556.33
828.88	22251.18
829.06	22634.15
829.24	22509.22
829.41	22353.58
829.59	22451.88
829.77	22431.40
829.95	21927.60
830.12	22218.41
830.30	22173.36
830.48	21952.18
830.66	22093.49
830.84	22056.62
831.01	22144.69
831.19	22187.69
831.37	22046.38
831.55	21831.35
831.72	21759.67
831.90	21817.01
832.08	21948.08
832.25	21753.52
832.43	21898.93
832.61	21634.74
832.79	21499.58
832.96	21515.96
833.14	21532.34
833.32	21786.29
833.50	21737.14
833.67	21462.71
833.85	21860.02
834.03	21374.65
834.20	21370.55
834.38	21444.28
834.56	21429.94
834.74	21475.00
834.91	21413.56
835.09	21366.46
835.27	21167.80
835.44	21132.99
835.62	20766.40
835.80	21049.02
835.98	21196.48
836.15	21028.54
836.33	20848.32
836.51	21296.83
836.68	20991.68
836.86	20807.36
837.04	21280.44
837.21	20911.81
837.39	20733.64
837.57	20995.78
837.75	21034.69
837.92	20803.27
838.10	20688.58
838.28	20459.21
838.45	20715.20
838.63	20725.44
838.81	20457.16
838.98	20707.01
839.16	20326.09
839.34	20553.41
839.51	20498.12
839.69	20387.53
839.87	20381.38
840.04	20434.63
840.22	20477.64
840.40	20500.17
840.57	20246.22
840.75	20162.25
840.93	20405.96
841.10	20479.69
841.28	20403.91
841.46	20043.47
841.63	20197.07
841.81	20088.53
841.98	19992.27
842.16	20094.67
842.34	19906.26
842.51	19816.15
842.69	20172.49
842.87	20096.72
843.04	20137.68
843.22	19873.49
843.40	20018.89
843.57	19787.47
843.75	20025.04
843.92	19914.45
844.10	19953.36
844.28	19799.76
844.45	19926.74
844.63	19742.42
844.81	19779.28
844.98	19650.26
845.16	19572.44
845.33	19656.40
845.51	19660.50
845.69	19363.54
845.86	19306.20
846.04	19574.49
846.21	19240.67
846.39	19359.45
846.57	19412.70
846.74	19332.82
846.92	19420.89
847.09	19295.96
847.27	19293.91
847.45	19400.41
847.62	19027.68
847.80	19261.15
847.97	19314.39
848.15	19072.73
848.32	19168.99
848.50	19152.60
848.68	18921.18
848.85	19308.25
849.03	18622.18
849.20	18915.04
849.38	18882.27
849.56	18867.94
849.73	18775.78
849.91	18865.89
850.08	18847.46
850.26	18628.32
850.43	18636.52
850.61	18597.60
850.78	18683.62
850.96	18620.13
851.14	18517.73
851.31	18611.94
851.49	18423.53
851.66	18646.76
851.84	18388.71
852.01	18603.75
852.19	18525.93
852.36	18521.83
852.54	18267.88
852.71	18394.86
852.89	18298.60
853.07	18382.57
853.24	18298.60
853.42	18282.22
853.59	18378.47
853.77	18114.28
853.94	18228.97
854.12	18339.56
854.29	18149.10
854.47	18271.98
854.64	17934.06
854.82	18001.65
854.99	18208.49
855.17	18042.60
855.34	18050.80
855.52	18024.17
855.69	17952.49
855.87	17958.64
856.04	17825.52
856.22	17850.10
856.39	17860.34
856.57	17805.04
856.74	17948.40
856.92	17932.01
857.09	17612.53
857.27	17444.60
857.44	17870.58
857.62	17530.61
857.79	17522.42
857.97	17739.51
858.14	17575.67
858.32	17620.72
858.49	17622.77
858.67	17305.34
858.84	17467.13
859.02	17391.35
859.19	17276.66
859.37	17174.27
859.54	17331.96
859.72	17334.01
859.89	17307.38
860.06	17366.78
860.24	17299.19
860.41	17170.17
860.59	17182.46
860.76	17125.11
860.94	16916.22
861.11	17313.53
861.29	17168.12
861.46	16844.54
861.64	16951.04
861.81	16908.03
861.98	16946.94
862.16	17080.06
862.33	16918.27
862.51	16951.04
862.68	16914.17
862.86	16891.65
863.03	16871.17
863.21	16695.04
863.38	16848.64
863.55	16715.52
863.73	16582.40
863.90	16953.09
864.08	16811.78
864.25	16711.42
864.43	16631.55
864.60	16492.29
864.77	16400.13
864.95	16353.03
865.12	16559.88
865.30	16537.35
865.47	16402.18
865.64	16525.06
865.82	16449.28
865.99	16523.01
866.17	16281.35
866.34	16504.58
866.51	16285.45
866.69	16490.24
866.86	16535.30
867.04	16262.92
867.21	16211.72
867.38	16160.52
867.56	16002.83
867.73	16199.43
867.91	15980.30
868.08	16115.47
868.25	15822.61
868.43	15927.05
868.60	15871.76
868.78	15785.74
868.95	16172.81
869.12	15847.18
869.30	15812.37
869.47	15650.58
869.64	15533.84
869.82	15638.29
869.99	15642.39
870.16	15748.88
870.34	15673.10
870.51	15707.92
870.69	15519.51
870.86	15515.41
871.03	15447.83
871.21	15429.40
871.38	15406.87
871.55	15255.32
871.73	15380.25
871.90	15329.05
872.07	15177.50
872.25	15394.58
872.42	15359.77
872.59	15191.83
872.77	15320.85
872.94	15261.46
873.11	15169.30
873.29	15109.91
873.46	15097.63
873.63	15087.39
873.81	14931.74
873.98	14774.05
874.15	14960.41
874.33	14923.55
874.50	14749.47
874.67	14761.76
874.85	14810.91
875.02	14728.99
875.19	14540.58
875.37	14618.40
875.54	14401.32
875.71	14712.61
875.88	14546.72
876.06	14761.76
876.23	14380.84
876.40	14374.69
876.58	14333.73
876.75	14579.49
876.92	14247.72
877.10	14399.27
877.27	14411.56
877.44	14241.57
877.61	14272.29
877.79	14272.29
877.96	14151.46
878.13	14169.90
878.31	14028.59
878.48	14059.31
878.65	13907.76
878.82	14026.54
879.00	13989.67
879.17	14098.22
879.34	14012.20
879.51	13920.04
879.69	13731.63
879.86	13723.44
880.03	13731.63
880.21	13590.32
880.38	13973.29
880.55	13707.05
880.72	13455.15
880.90	14200.62
881.07	13799.21
881.24	13639.47
881.41	13653.81
881.59	13823.79
881.76	13492.02
881.93	13338.42
882.10	13442.87
882.28	13412.15
882.45	13623.09
882.62	13432.63
882.79	13541.17
882.96	13307.70
883.14	13563.70
883.31	13492.02
883.48	13442.87
883.65	13520.69
883.83	13504.31
884.00	13340.47
884.17	13113.14
884.34	13481.78
884.51	13160.25
884.69	13377.33
884.86	13303.60
885.03	13203.25
885.20	13272.89
885.38	13338.42
885.55	13299.51
885.72	13276.98
885.89	13279.03
886.06	13068.09
886.24	13272.89
886.41	12930.87
886.58	13178.68
886.75	13168.44
886.92	12977.98
887.10	13229.88
887.27	12781.37
887.44	12982.07
887.61	13084.47
887.78	13076.28
887.95	13008.70
888.13	13098.81
888.30	12779.32
888.47	12789.56
888.64	12873.53
888.81	13045.56
888.99	12869.44
889.16	12695.36
889.33	12803.90
889.50	12599.10
889.67	12558.14
889.84	12674.88
890.01	12500.80
890.19	12719.93
890.36	12617.54
890.53	12676.93
890.70	12648.26
890.87	12525.38
891.04	12607.30
891.22	12472.13
891.39	12388.16
891.56	12355.40
891.73	12246.85
891.90	12191.56
892.07	12214.09
892.24	12357.44
892.42	12496.71
892.59	12445.51
892.76	12263.24
892.93	12382.02
893.10	12177.22
893.27	12078.92
893.44	12109.64
893.61	12263.24
893.79	12410.69
893.96	12140.36
894.13	12177.22
894.30	12357.44
894.47	12134.21
894.64	12189.51
894.81	12091.21
894.98	12142.41
895.15	12246.85
895.33	12162.89
895.50	12101.45
895.67	12267.33
895.84	12076.87
896.01	12123.98
896.18	12040.01
896.35	12183.37
896.52	11908.94
896.69	11874.12
896.86	11937.61
897.04	12037.96
897.21	12115.78
897.38	11945.80
897.55	12070.73
897.72	12056.39
897.89	12101.45
898.06	12070.73
898.23	12050.25
898.40	11927.37
898.57	12011.34
898.74	11851.60
898.91	12087.11
899.08	11919.18
899.26	12072.78
899.43	11997.00
899.60	12169.03
899.77	11896.65
899.94	11863.88
900.11	11835.21
900.28	12099.40
900.45	11956.04
900.62	12046.15
900.79	11917.13
900.96	11902.79
901.13	11704.14
901.30	11988.81
901.47	11798.35
901.64	11835.21
901.81	11947.85
901.98	11808.59
902.15	11839.31
902.32	11851.60
902.49	11855.69
902.66	11757.39
902.83	11761.48
903.01	11796.30
903.18	11718.48
903.35	11876.17
903.52	11730.76
903.69	11863.88
903.86	11843.40
904.03	11685.71
904.20	11706.19
904.37	11812.68
904.54	11691.85
904.71	11661.13
904.88	11698.00
905.05	11935.56
905.22	11769.68
905.39	11827.02
905.56	11648.85
905.73	11505.49
905.90	11988.81
906.07	11708.24
906.24	11777.87
906.41	11790.16
906.58	11642.70
906.75	11706.19
906.92	11747.15
907.09	11702.09
907.26	11579.22
907.43	11560.78
907.60	11521.87
907.77	11677.52
907.93	11597.65
908.10	11618.13
908.27	11673.42
908.44	11468.62
908.61	11556.69
908.78	11454.29
908.95	11497.30
909.12	11540.30
909.29	11474.77
909.46	11607.89
909.63	11552.59
909.80	11618.13
909.97	11544.40
910.14	11528.02
910.31	11290.45
910.48	11327.32
910.65	11429.71
910.82	11347.79
910.99	11437.91
911.16	11321.17
911.33	11478.86
911.50	11437.91
911.66	11243.35
911.83	11360.08
912.00	11290.45
912.17	11177.81
912.34	11188.05
912.51	11136.85
912.68	11249.49
912.85	11292.50
913.02	11216.72
913.19	11333.46
913.36	11286.36
913.53	11159.38
913.70	11321.17
913.86	11130.71
914.03	10940.25
914.20	10841.95
914.37	10903.39
914.54	10999.64
914.71	10991.45
914.88	10743.64
915.05	10680.16
915.22	10917.72
915.39	10893.15
915.55	10741.60
915.72	10874.71
915.89	10608.48
916.06	10778.46
916.23	10811.23
916.40	10594.14
916.57	10516.32
916.74	10712.92
916.91	10596.19
917.07	10631.01
917.24	10432.35
917.41	10569.57
917.58	10446.69
917.75	10385.25
917.92	10495.84
918.09	10364.77
918.26	10245.99
918.42	10594.14
918.59	10411.87
918.76	10563.42
918.93	10321.76
919.10	10360.67
919.27	10235.75
919.44	10245.99
919.60	10350.43
919.77	10149.73
919.94	10145.64
920.11	10047.33
920.28	10059.62
920.45	9922.41
920.61	10012.52
920.78	9977.70
920.95	9826.15
921.12	10098.53
921.29	10047.33
921.46	9666.41
921.62	9873.26
921.79	9934.70
921.96	9707.37
922.13	9809.77
922.30	9723.76
922.47	9508.72
922.63	9576.30
922.80	9541.49
922.97	9701.23
923.14	9428.85
923.31	9299.83
923.47	9338.74
923.64	9449.33
923.81	9299.83
923.98	9406.32
924.15	9205.62
924.32	9285.49
924.48	9119.60
924.65	9189.24
924.82	9021.30
924.99	9201.52
925.15	9045.88
925.32	9129.84
925.49	8920.95
925.66	9138.04
925.83	9017.21
925.99	8810.36
926.16	8992.63
926.33	9060.21
926.50	8886.14
926.67	8839.03
926.83	8820.60
927.00	8703.87
927.17	8486.78
927.34	8744.83
927.50	8671.10
927.67	8456.06
927.84	8619.90
928.01	8550.27
928.17	8494.97
928.34	8343.42
928.51	8421.25
928.68	8298.37
928.84	8415.10
929.01	8298.37
929.18	8220.55
929.35	8050.57
929.51	8279.94
929.68	7970.69
929.85	8146.82
930.02	8056.71
930.18	8128.39
930.35	7950.21
930.52	8144.77
930.69	8109.96
930.85	7962.50
931.02	8077.19
931.19	7847.82
931.36	7827.34
931.52	7864.20
931.69	7825.29
931.86	7679.88
932.02	7645.07
932.19	7763.85
932.36	7692.17
932.53	7757.71
932.69	7538.57
932.86	7522.19
933.03	7581.58
933.19	7262.10
933.36	7438.22
933.53	7532.43
933.70	7182.23
933.86	7368.59
934.03	7354.26
934.20	7184.27
934.36	7309.20
934.53	7002.01
934.70	7024.53
934.86	7073.68
935.03	6938.52
935.20	7083.92
935.36	6981.53
935.53	6903.70
935.70	6879.13
935.86	6846.36
936.03	6809.50
936.20	6770.58
936.36	6541.21
936.53	6498.20
936.70	6498.20
936.86	6506.40
937.03	6358.94
937.20	6432.67
937.36	6442.91
937.53	6199.20
937.70	6104.99
937.86	6113.19
938.03	6057.89
938.20	6221.73
938.36	5887.91
938.53	5840.81
938.70	5646.25
938.86	5742.50
939.03	5601.19
939.20	5758.89
939.36	5650.35
939.53	5457.84
939.70	5459.88
939.86	5404.59
940.03	5302.19
940.19	5291.95
940.36	5298.10
940.53	5332.91
940.69	5296.05
940.86	5242.80
941.03	5097.39
941.19	4894.65
941.36	5031.86
941.52	5072.82
941.69	4810.68
941.86	4839.35
942.02	4956.08
942.19	4839.35
942.35	4923.32
942.52	4685.75
942.69	4868.02
942.85	4698.04
943.02	4698.04
943.18	4745.14
943.35	4493.24
943.52	4630.46
943.68	4499.39
943.85	4515.77
944.01	4470.72
944.18	4214.72
944.35	4364.22
944.51	4321.21
944.68	4302.78
944.84	4331.45
945.01	4370.37
945.17	4296.64
945.34	4306.88
945.51	4327.36
945.67	4294.59
945.84	4284.35
946.00	4274.11
946.17	4212.67
946.33	4233.15
946.50	4284.35
946.67	4194.24
946.83	4265.92
947.00	4255.68
947.16	4200.38
947.33	4353.98
947.49	4169.66
947.66	4175.81
947.82	4095.94
947.99	4161.47
948.16	4085.70
948.32	4251.58
948.49	4067.27
948.65	4274.11
948.82	4120.51
948.98	4093.89
949.15	4165.57
949.31	4124.61
949.48	4208.58
949.64	4124.61
949.81	4227.01
949.97	4108.23
950.14	4294.59
950.30	4036.55
950.47	4257.73
950.63	4147.14
950.80	4087.75
950.96	4196.29
951.13	4138.94
951.30	4042.69
951.46	4149.18
951.63	4261.82
951.79	4163.52
951.96	4345.79
952.12	4186.05
952.29	4202.43
952.45	4100.03
952.62	4198.34
952.78	4245.44
952.94	4304.83
953.11	4231.10
953.27	4313.02
953.44	4267.97
953.60	4149.18
953.77	4335.55
953.93	4366.27
954.10	4304.83
954.26	4419.52
954.43	4317.12
954.59	4315.07
954.76	4265.92
954.92	4263.87
955.09	4229.06
955.25	4319.17
955.42	4335.55
955.58	4304.83
955.75	4272.06
955.91	4308.93
956.07	4353.98
956.24	4296.64
956.40	4321.21
956.57	4212.67
956.73	4235.20
956.90	4274.11
957.06	4351.93
957.23	4292.54
957.39	4198.34
957.56	4253.63
957.72	4145.09
957.88	4306.88
958.05	4274.11
958.21	4270.01
958.38	4347.84
958.54	4257.73
958.71	4317.12
958.87	4321.21
959.03	4249.54
959.20	4317.12
959.36	4147.14
959.53	4216.77
959.69	4274.11
959.85	4313.02
960.02	4368.32
960.18	4329.41
960.35	4155.33
960.51	4362.17
960.68	4214.72
960.84	4366.27
961.00	4306.88
961.17	4333.50
961.33	4179.90
961.50	4310.97
961.66	4290.49
961.82	4476.86
961.99	4280.25
962.15	4204.48
962.31	4159.42
962.48	4276.16
962.64	4229.06
962.81	4163.52
962.97	4157.38
963.13	4302.78
963.30	4276.16
963.46	4218.82
963.62	4145.09
963.79	4249.54
963.95	4216.77
964.12	4102.08
964.28	4382.65
964.44	4177.86
964.61	4253.63
964.77	4214.72
964.93	4165.57
965.10	4220.86
965.26	4173.76
965.42	4112.32
965.59	4192.19
965.75	4192.19
965.92	4048.83
966.08	4231.10
966.24	4206.53
966.41	4130.75
966.57	4239.30
966.73	4077.51
966.90	4110.27
967.06	4253.63
967.22	4038.59
967.39	4059.07
967.55	4108.23
967.71	4016.07
967.88	4136.90
968.04	4026.31
968.20	4001.73
968.37	4036.55
968.53	3995.59
968.69	3981.25
968.85	4034.50
969.02	4030.40
969.18	4104.13
969.34	3993.54
969.51	4030.40
969.67	3993.54
969.83	3891.14
970.00	4071.36
970.16	3942.34
970.32	3966.92
970.48	4106.18
970.65	3962.82
970.81	3973.06
970.97	4014.02
971.14	4005.83
971.30	4022.21
971.46	3909.57
971.63	3934.15
971.79	3932.10
971.95	3940.29
972.11	3878.85
972.28	3897.28
972.44	3885.00
972.60	3878.85
972.76	3882.95
972.93	3823.56
973.09	3846.09
973.25	3960.77
973.42	3786.69
973.58	3805.13
973.74	3819.46
973.90	3907.52
974.07	3788.74
974.23	3899.33
974.39	3880.90
974.55	3745.73
974.72	3829.70
974.88	3647.43
975.04	3782.60
975.20	3803.08
975.37	3739.59
975.53	3645.38
975.69	3633.10
975.85	3764.17
976.01	3755.97
976.18	3755.97
976.34	3794.89
976.50	3794.89
976.66	3690.44
976.83	3727.30
976.99	3637.19
977.15	3686.34
977.31	3575.75
977.47	3846.09
977.64	3739.59
977.80	3719.11
977.96	3669.96
978.12	3672.01
978.29	3659.72
978.45	3549.13
978.61	3424.20
978.77	3592.14
978.93	3551.18
979.10	3573.71
979.26	3534.79
979.42	3575.75
979.58	3481.55
979.74	3602.38
979.91	3493.83
980.07	3479.50
980.23	3540.94
980.39	3456.97
980.55	3497.93
980.71	3485.64
980.88	3452.88
981.04	3422.16
981.20	3393.48
981.36	3403.72
981.52	3467.21
981.68	3430.35
981.85	3438.54
982.01	3510.22
982.17	3418.06
982.33	3362.76
982.49	3432.40
982.65	3389.39
982.82	3418.06
982.98	3420.11
983.14	3413.96
983.30	3424.20
983.46	3436.49
983.62	3428.30
983.79	3430.35
983.95	3264.46
984.11	3377.10
984.27	3375.05
984.43	3340.24
984.59	3370.96
984.75	3301.33
984.91	3313.61
985.08	3215.31
985.24	3272.65
985.40	3313.61
985.56	3291.09
985.72	3237.84
985.88	3301.33
986.04	3172.30
986.20	3231.69
986.37	3192.78
986.53	3174.35
986.69	3188.69
986.85	3188.69
987.01	3211.22
987.17	3182.54
987.33	3196.88
987.49	3172.30
987.65	3221.45
987.82	3082.19
987.98	3184.59
988.14	3106.77
988.30	3143.63
988.46	3127.25
988.62	3237.84
988.78	3129.30
988.94	3133.39
989.10	3108.82
989.26	3067.86
989.42	3108.82
989.59	3026.90
989.75	3100.62
989.91	3024.85
990.07	2961.36
990.23	3119.06
990.39	2996.18
990.55	3147.73
990.71	3055.57
990.87	3076.05
991.03	3010.51
991.19	2760.66
991.35	3035.09
991.51	2971.60
991.67	3063.76
991.83	3059.67
992.00	3076.05
992.16	2961.36
992.32	2957.27
992.48	3108.82
992.64	2869.20
992.80	2910.16
992.96	2951.12
993.12	3043.28
993.28	2940.88
993.44	3006.42
993.60	2809.81
993.76	2848.72
993.92	2949.08
994.08	2830.29
994.24	2914.26
994.40	2836.44
994.56	2883.54
994.72	2918.36
994.88	2772.95
995.04	2910.16
995.20	2873.30
995.36	2795.48
995.52	2758.61
995.68	2744.28
995.84	2809.81
996.00	2824.15
996.16	2779.09
996.32	2766.81
996.48	2772.95
996.64	2809.81
996.80	2725.85
996.96	2801.62
997.12	2777.05
997.28	2783.19
997.44	2815.96
997.60	2723.80
997.76	2650.07
997.92	2635.74
998.08	2824.15
998.24	2738.13
998.40	2797.53
998.56	2797.53
998.72	2748.37
998.88	2660.31
999.04	2627.54
999.20	2742.23
999.36	2705.37
999.52	2709.46
999.68	2703.32
999.84	2715.61
1000.00	2738.13
1000.16	2666.46
1000.32	2736.09
1000.48	2660.31
1000.64	2609.11
1000.80	2607.06
1000.95	2645.98
1001.11	2711.51
1001.27	2551.77
1001.43	2584.54
1001.59	2539.48
1001.75	2539.48
1001.91	2639.83
1002.07	2600.92
1002.23	2602.97
1002.39	2535.39
1002.55	2545.63
1002.71	2607.06
1002.87	2557.91
1003.03	2416.60
1003.19	2578.39
1003.34	2527.19
1003.50	2535.39
1003.66	2578.39
1003.82	2521.05
1003.98	2465.75
1004.14	2545.63
1004.30	2508.76
1004.46	2406.36
1004.62	2559.96
1004.78	2478.04
1004.94	2527.19
1005.09	2533.34
1005.25	2455.51
1005.41	2475.99
1005.57	2439.13
1005.73	2486.23
1005.89	2432.99
1006.05	2465.75
1006.21	2346.97
1006.37	2398.17
1006.52	2508.76
1006.68	2404.32
1006.84	2412.51
1007.00	2328.54
1007.16	2449.37
1007.32	2420.70
1007.48	2414.56
1007.64	2385.88
1007.79	2396.12
1007.95	2283.49
1008.11	2383.84
1008.27	2375.64
1008.43	2359.26
1008.59	2277.34
1008.75	2353.12
1008.91	2342.88
1009.06	2371.55
1009.22	2351.07
1009.38	2375.64
1009.54	2277.34
1009.70	2312.16
1009.86	2303.96
1010.01	2359.26
1010.17	2242.53
1010.33	2258.91
1010.49	2265.05
1010.65	2303.96
1010.81	2275.29
1010.96	2310.11
1011.12	2308.06
1011.28	2179.04
1011.44	2297.82
1011.60	2338.78
1011.76	2267.10
1011.91	2211.81
1012.07	2197.47
1012.23	2158.56
1012.39	2238.43
1012.55	2265.05
1012.71	2158.56
1012.86	2197.47
1013.02	2330.59
1013.18	2158.56
1013.34	2269.15
1013.50	2144.22
1013.65	2293.72
1013.81	2228.19
1013.97	2176.99
1014.13	2140.13
1014.29	2148.32
1014.44	2156.51
1014.60	2146.27
1014.76	2181.09
1014.92	2230.24
1015.07	2185.18
1015.23	2187.23
1015.39	2166.75
1015.55	2133.98
1015.71	2187.23
1015.86	2131.94
1016.02	2140.13
1016.18	2050.02
1016.34	2164.70
1016.49	2179.04
1016.65	2172.89
1016.81	2199.52
1016.97	2043.87
1017.12	2109.41
1017.28	2088.93
1017.44	2095.07
1017.60	2060.26
1017.75	2211.81
1017.91	2115.55
1018.07	2107.36
1018.23	2109.41
1018.38	1986.53
1018.54	2035.68
1018.70	2095.07
1018.86	2060.26
1019.01	2054.11
1019.17	2070.50
1019.33	2113.50
1019.49	2029.54
1019.64	2033.63
1019.80	2070.50
1019.96	2035.68
1020.12	2009.06
1020.27	2011.11
1020.43	2009.06
1020.59	2033.63
1020.74	2002.91
1020.90	2060.26
1021.06	1949.67
1021.22	1951.71
1021.37	1937.38
1021.53	2023.39
1021.69	2009.06
1021.84	1961.95
1022.00	2021.35
1022.16	1939.43
1022.31	2043.87
1022.47	2039.78
1022.63	1976.29
1022.79	1964.00
1022.94	1959.91
1023.10	2013.15
1023.26	1939.43
1023.41	2027.49
1023.57	1894.37
1023.73	2007.01
1023.88	1941.47
1024.04	1972.19
1024.20	1970.15
1024.35	1957.86
1024.51	2045.92
1024.67	1910.75
1024.82	1968.10
1024.98	1964.00
1025.14	1931.23
1025.29	1875.94
1025.45	1982.43
1025.61	1882.08
1025.76	1806.31
1025.92	1841.12
1026.08	1957.86
1026.23	1959.91
1026.39	1929.19
1026.55	1890.28
1026.70	1884.13
1026.86	1884.13
1027.02	1871.84
1027.17	1904.61
1027.33	1877.99
1027.48	1896.42
1027.64	1871.84
1027.80	1904.61
1027.95	1849.32
1028.11	1791.97
1028.27	1884.13
1028.42	1873.89
1028.58	1851.36
1028.73	1841.12
1028.89	1877.99
1029.05	1882.08
1029.20	1884.13
>>>>>End Processed Spectral Data<<<<<
