SpectraSuite Data File
++++++++++++++++++++++++++++++++++++
Date: Tue Jun 13 12:03:49 CEST 2017
User: INFO_000
Dark Spectrum Present: No
Reference Spectrum Present: No
Number of Sampled Component Spectra: 1
Spectrometers: USB4H00879
Integration Time (usec): 30000 (USB4H00879)
Spectra Averaged: 1 (USB4H00879)
Boxcar Smoothing: 0 (USB4H00879)
Correct for Electrical Dark: No (USB4H00879)
Strobe/Lamp Enabled: No (USB4H00879)
Correct for Detector Non-linearity: No (USB4H00879)
Correct for Stray Light: No (USB4H00879)
Number of Pixels in Processed Spectrum: 3648
>>>>>Begin Processed Spectral Data<<<<<
345.13	1359.85
345.34	1359.85
345.56	1359.85
345.78	1304.56
345.99	1374.19
346.21	1511.40
346.42	1595.37
346.64	1533.93
346.86	1630.18
347.07	1495.02
347.29	1515.50
347.50	1423.34
347.72	1548.26
347.94	1634.28
348.15	1480.68
348.37	1515.50
348.59	1535.98
348.80	1574.89
349.02	1583.08
349.23	1648.61
349.45	1597.42
349.67	1689.57
349.88	1589.22
350.10	1677.29
350.31	1673.19
350.53	1646.57
350.75	1681.38
350.96	1564.65
351.18	1632.23
351.39	1665.00
351.61	1617.90
351.82	1712.10
352.04	1648.61
352.26	1642.47
352.47	1578.98
352.69	1650.66
352.90	1679.33
353.12	1644.52
353.34	1648.61
353.55	1738.73
353.77	1603.56
353.98	1601.51
354.20	1576.94
354.41	1654.76
354.63	1632.23
354.85	1765.35
355.06	1636.33
355.28	1564.65
355.49	1693.67
355.71	1646.57
355.92	1634.28
356.14	1720.29
356.35	1636.33
356.57	1638.38
356.79	1613.80
357.00	1687.53
357.22	1697.77
357.43	1658.85
357.65	1665.00
357.86	1597.42
358.08	1677.29
358.29	1708.01
358.51	1671.14
358.72	1730.53
358.94	1654.76
359.16	1693.67
359.37	1685.48
359.59	1720.29
359.80	1742.82
360.02	1716.20
360.23	1658.85
360.45	1716.20
360.66	1720.29
360.88	1564.65
361.09	1736.68
361.31	1734.63
361.52	1714.15
361.74	1830.88
361.95	1771.49
362.17	1710.05
362.38	1779.68
362.60	1708.01
362.81	1730.53
363.03	1720.29
363.24	1738.73
363.46	1757.16
363.67	1697.77
363.89	1742.82
364.10	1724.39
364.32	1699.81
364.53	1847.27
364.75	1636.33
364.96	1638.38
365.18	1781.73
365.39	1708.01
365.61	1636.33
365.82	1802.21
366.04	1728.49
366.25	1654.76
366.47	1767.40
366.68	1800.16
366.90	1699.81
367.11	1800.16
367.33	1787.88
367.54	1765.35
367.76	1728.49
367.97	1832.93
368.19	1769.44
368.40	1796.07
368.62	1671.14
368.83	1703.91
369.05	1841.12
369.26	1693.67
369.48	1748.97
369.69	1732.58
369.91	1740.77
370.12	1720.29
370.33	1863.65
370.55	1720.29
370.76	1810.40
370.98	1781.73
371.19	1779.68
371.41	1810.40
371.62	1865.70
371.84	1771.49
372.05	1847.27
372.27	1810.40
372.48	1738.73
372.69	1771.49
372.91	1812.45
373.12	1808.36
373.34	1820.64
373.55	1804.26
373.77	1820.64
373.98	1869.80
374.20	1798.12
374.41	1847.27
374.62	1804.26
374.84	1834.98
375.05	1929.19
375.27	1841.12
375.48	1896.42
375.70	1923.04
375.91	1851.36
376.12	1943.52
376.34	1925.09
376.55	1900.52
376.77	1916.90
376.98	1894.37
377.19	1892.32
377.41	1933.28
377.62	1853.41
377.84	1968.10
378.05	1927.14
378.27	1949.67
378.48	1978.34
378.69	1974.24
378.91	1920.99
379.12	1886.18
379.34	2017.25
379.55	1980.39
379.76	1892.32
379.98	1925.09
380.19	1918.95
380.41	1931.23
380.62	1941.47
380.83	1947.62
381.05	1912.80
381.26	2031.58
381.47	1980.39
381.69	1992.67
381.90	2009.06
382.12	1959.91
382.33	2045.92
382.54	2107.36
382.76	1955.81
382.97	2013.15
383.19	1984.48
383.40	2023.39
383.61	2023.39
383.83	1990.63
384.04	2002.91
384.25	2041.82
384.47	2062.30
384.68	1990.63
384.89	1959.91
385.11	2070.50
385.32	2031.58
385.54	2027.49
385.75	2109.41
385.96	2119.65
386.18	2156.51
386.39	2197.47
386.60	2158.56
386.82	2152.42
387.03	2154.46
387.24	2191.33
387.46	2162.66
387.67	2107.36
387.88	2107.36
388.10	2213.85
388.31	2158.56
388.52	2138.08
388.74	2209.76
388.95	2158.56
389.16	2181.09
389.38	2140.13
389.59	2232.29
389.80	2254.81
390.02	2183.13
390.23	2273.25
390.44	2195.42
390.66	2240.48
390.87	2209.76
391.08	2267.10
391.30	2283.49
391.51	2226.14
391.72	2277.34
391.94	2281.44
392.15	2283.49
392.36	2295.77
392.58	2215.90
392.79	2344.92
393.00	2353.12
393.22	2365.40
393.43	2328.54
393.64	2363.36
393.85	2346.97
394.07	2357.21
394.28	2387.93
394.49	2385.88
394.71	2435.03
394.92	2551.77
395.13	2400.22
395.35	2353.12
395.56	2383.84
395.77	2387.93
395.98	2412.51
396.20	2555.86
396.41	2361.31
396.62	2545.63
396.84	2424.80
397.05	2402.27
397.26	2543.58
397.47	2533.34
397.69	2396.12
397.90	2578.39
398.11	2592.73
398.32	2613.21
398.54	2527.19
398.75	2623.45
398.96	2555.86
399.18	2559.96
399.39	2596.82
399.60	2613.21
399.81	2457.56
400.03	2660.31
400.24	2650.07
400.45	2596.82
400.66	2656.22
400.88	2678.74
401.09	2660.31
401.30	2727.89
401.51	2580.44
401.73	2670.55
401.94	2641.88
402.15	2766.81
402.36	2779.09
402.58	2682.84
402.79	2803.67
403.00	2678.74
403.21	2768.85
403.43	2719.70
403.64	2799.57
403.85	2680.79
404.06	2869.20
404.27	2680.79
404.49	2791.38
404.70	2711.51
404.91	2883.54
405.12	2822.10
405.34	2815.96
405.55	2877.40
405.76	2717.65
405.97	2807.77
406.19	2856.92
406.40	2770.90
406.61	2879.44
406.82	2908.12
407.03	2936.79
407.25	2928.60
407.46	2899.92
407.67	3028.95
407.88	2908.12
408.09	2944.98
408.31	2811.86
408.52	2938.84
408.73	2975.70
408.94	2869.20
409.15	2981.84
409.37	2928.60
409.58	3049.43
409.79	2985.94
410.00	3080.14
410.21	3108.82
410.43	3022.80
410.64	3074.00
410.85	3106.77
411.06	3196.88
411.27	3063.76
411.48	3047.38
411.70	3143.63
411.91	3162.06
412.12	3188.69
412.33	3074.00
412.54	3243.98
412.76	3225.55
412.97	3178.45
413.18	3051.47
413.39	3227.60
413.60	3168.21
413.81	3219.41
414.03	3174.35
414.24	3239.89
414.45	3303.37
414.66	3164.11
414.87	3256.27
415.08	3203.02
415.30	3282.89
415.51	3254.22
415.72	3317.71
415.93	3284.94
416.14	3368.91
416.35	3426.25
416.56	3344.33
416.78	3418.06
416.99	3422.16
417.20	3336.14
417.41	3428.30
417.62	3448.78
417.83	3411.92
418.04	3358.67
418.26	3413.96
418.47	3416.01
418.68	3528.65
418.89	3461.07
419.10	3551.18
419.31	3596.23
419.52	3596.23
419.73	3381.20
419.95	3741.64
420.16	3504.07
420.37	3590.09
420.58	3553.23
420.79	3551.18
421.00	3647.43
421.21	3600.33
421.42	3592.14
421.63	3737.54
421.85	3624.90
422.06	3692.49
422.27	3725.26
422.48	3655.62
422.69	3706.82
422.90	3796.93
423.11	3841.99
423.32	3606.47
423.53	3768.26
423.75	3776.45
423.96	3911.62
424.17	3813.32
424.38	3968.96
424.59	3952.58
424.80	3934.15
425.01	3872.71
425.22	3958.72
425.43	3876.80
425.64	4057.03
425.85	4120.51
426.06	4028.35
426.28	4046.79
426.49	3999.68
426.70	3964.87
426.91	4095.94
427.12	4227.01
427.33	4118.47
427.54	4054.98
427.75	4011.97
427.96	4235.20
428.17	4153.28
428.38	4278.21
428.59	4327.36
428.80	4173.76
429.01	4200.38
429.23	4196.29
429.44	4511.68
429.65	4325.31
429.86	4339.65
430.07	4278.21
430.28	4343.74
430.49	4331.45
430.70	4644.79
430.91	4388.80
431.12	4495.29
431.33	4540.35
431.54	4487.10
431.75	4446.14
431.96	4554.68
432.17	4474.81
432.38	4523.96
432.59	4599.74
432.80	4523.96
433.01	4628.41
433.22	4753.34
433.43	4630.46
433.64	4642.75
433.85	4638.65
434.06	4665.27
434.27	4655.03
434.49	4855.73
434.70	4827.06
434.91	4894.65
435.12	4794.29
435.33	4784.06
435.54	4724.66
435.75	4612.03
435.96	4900.79
436.17	4802.49
436.38	4968.37
436.59	4827.06
436.80	4966.32
437.01	5083.06
437.22	5148.59
437.43	5064.63
437.64	4968.37
437.85	5070.77
438.06	4929.46
438.27	5054.39
438.48	5029.81
438.69	5203.89
438.90	5189.55
439.11	5091.25
439.32	5150.64
439.53	5228.46
439.74	5277.62
439.95	5341.10
440.16	5255.09
440.37	5105.59
440.57	5089.20
440.78	5277.62
440.99	5261.23
441.20	5357.49
441.41	5291.95
441.62	5218.22
441.83	5238.70
442.04	5451.69
442.25	5511.08
442.46	5418.93
442.67	5556.14
442.88	5742.50
443.09	5267.38
443.30	5515.18
443.51	5406.64
443.72	5787.56
443.93	5541.80
444.14	5865.38
444.35	5445.55
444.56	5674.92
444.77	5713.83
444.98	5586.86
445.19	5668.78
445.40	5773.22
445.61	5715.88
445.81	5930.92
446.02	5814.18
446.23	5699.50
446.44	5726.12
446.65	5877.67
446.86	5717.93
447.07	5838.76
447.28	5994.40
447.49	5990.31
447.70	5935.01
447.91	5984.16
448.12	5812.14
448.33	5932.97
448.54	6133.67
448.74	6035.36
448.95	6021.03
449.16	5883.81
449.37	6371.23
449.58	6098.85
449.79	6344.61
450.00	6027.17
450.21	6203.30
450.42	6289.31
450.63	6412.19
450.84	6156.19
451.05	6457.25
451.25	6326.18
451.46	6283.17
451.67	6420.38
451.88	6586.27
452.09	6518.68
452.30	6537.12
452.51	6399.90
452.72	6670.23
452.93	6709.15
453.13	6371.23
453.34	6483.87
453.55	6653.85
453.76	6621.08
453.97	6889.37
454.18	6651.80
454.39	6746.01
454.60	6885.27
454.81	6698.91
455.01	6852.50
455.22	6666.14
455.43	6797.21
455.64	6903.70
455.85	6954.90
456.06	7057.30
456.27	6891.41
456.48	6922.13
456.68	7083.92
456.89	7063.44
457.10	7094.16
457.31	7202.71
457.52	7229.33
457.73	7208.85
457.94	7325.58
458.14	7135.12
458.35	7532.43
458.56	7270.29
458.77	7301.01
458.98	7528.33
459.19	7413.65
459.39	7587.72
459.60	7587.72
459.81	7569.29
460.02	7694.22
460.23	7645.07
460.44	7757.71
460.65	7813.00
460.85	7872.39
461.06	7876.49
461.27	7546.76
461.48	8021.89
461.69	8044.42
461.89	7858.06
462.10	8056.71
462.31	7833.48
462.52	7929.74
462.73	8132.48
462.94	8202.11
463.14	8279.94
463.35	8101.76
463.56	8560.51
463.77	8357.76
463.98	8306.56
464.18	8372.10
464.39	8456.06
464.60	8515.45
464.81	8593.28
465.02	8535.93
465.23	8816.51
465.43	8583.04
465.64	8959.86
465.85	8746.87
466.06	8593.28
466.27	9076.60
466.47	9035.64
466.68	8916.86
466.89	8845.18
467.10	9107.32
467.30	9097.08
467.51	9123.70
467.72	9193.33
467.93	9019.25
468.14	9260.91
468.34	9387.89
468.55	9447.28
468.76	9242.48
468.97	9201.52
469.17	9578.35
469.38	9529.20
469.59	9701.23
469.80	9654.12
470.01	9764.72
470.21	9697.13
470.42	9791.34
470.63	9928.55
470.84	9903.98
471.04	9899.88
471.25	9865.07
471.46	10078.05
471.67	10254.18
471.87	10205.03
472.08	10377.06
472.29	10393.44
472.50	10200.93
472.70	10405.73
472.91	10313.57
473.12	10729.31
473.33	10710.88
473.53	10831.71
473.74	10848.09
473.95	11003.74
474.16	11036.50
474.36	11259.73
474.57	11220.82
474.78	11362.13
474.99	11173.72
475.19	11304.79
475.40	11579.22
475.61	11333.46
475.81	11716.43
476.02	11745.10
476.23	11790.16
476.44	12023.62
476.64	12066.63
476.85	12308.29
477.06	12031.82
477.27	12255.04
477.47	12418.88
477.68	12136.26
477.89	12543.81
478.09	12490.56
478.30	12595.01
478.51	12500.80
478.71	12730.17
478.92	12678.97
479.13	12746.56
479.34	13051.70
479.54	13037.37
479.75	13045.56
479.96	12896.06
480.16	12959.55
480.37	13229.88
480.58	13397.81
480.78	13500.21
480.99	13557.55
481.20	13641.52
481.41	13688.62
481.61	13754.16
481.82	13782.83
482.03	13772.59
482.23	13733.68
482.44	14380.84
482.65	14290.73
482.85	14315.30
483.06	14122.79
483.27	14444.32
483.47	14552.87
483.68	14454.56
483.89	14593.83
484.09	14632.74
484.30	14825.25
484.51	14907.16
484.71	14954.27
484.92	14880.54
485.13	14923.55
485.33	15220.50
485.54	15300.37
485.75	15519.51
485.95	15292.18
486.16	15529.75
486.37	15585.04
486.57	15658.77
486.78	15654.67
486.98	15763.22
487.19	16066.31
487.40	15994.64
487.60	16031.50
487.81	16369.41
488.02	16127.75
488.22	16115.47
488.43	16377.61
488.64	16461.57
488.84	16303.88
489.05	16484.10
489.25	16690.95
489.46	16961.28
489.67	16951.04
489.87	16971.52
490.08	17032.96
490.29	16832.26
490.49	17252.09
490.70	16908.03
490.90	17307.38
491.11	17397.49
491.32	17481.46
491.52	17383.16
491.73	17565.43
491.94	17780.46
492.14	17843.95
492.35	17819.38
492.55	18271.98
492.76	17719.03
492.97	18052.84
493.17	18136.81
493.38	18140.91
493.58	18628.32
493.79	18384.62
494.00	18355.94
494.20	18394.86
494.41	18597.60
494.61	18591.46
494.82	18732.77
495.02	18568.93
495.23	18689.76
495.44	18822.88
495.64	18886.37
495.85	19058.40
496.05	18986.72
496.26	18972.38
496.47	19265.24
496.67	19359.45
496.88	19480.28
497.08	19404.50
497.29	19660.50
497.49	19431.13
497.70	19810.00
497.91	19875.54
498.11	19754.71
498.32	20008.65
498.52	19926.74
498.73	20057.81
498.93	20182.73
499.14	20072.14
499.34	20401.86
499.55	20412.10
499.76	20221.64
499.96	20328.14
500.17	20444.87
500.37	20516.55
500.58	20575.94
500.78	20647.62
500.99	20485.83
501.19	20903.62
501.40	20850.37
501.60	20795.07
501.81	21030.59
502.02	21163.71
502.22	21128.89
502.43	21159.61
502.63	21212.86
502.84	21055.17
503.04	21049.02
503.25	21286.59
503.45	21067.45
503.66	21221.05
503.86	21309.11
504.07	21755.57
504.27	21071.55
504.48	21673.65
504.68	21894.83
504.89	21581.49
505.09	21685.94
505.30	21982.90
505.50	21882.55
505.71	22001.33
505.91	21941.94
506.12	22261.42
506.32	21941.94
506.53	22263.47
506.73	22232.75
506.94	22361.77
507.14	22242.99
507.35	22503.08
507.55	22660.77
507.76	22595.24
507.96	22525.61
508.17	22478.50
508.37	22515.37
508.58	22474.41
508.78	22541.99
508.99	22816.42
509.19	22632.10
509.40	22890.15
509.60	22867.62
509.81	22879.91
510.01	22687.40
510.22	23004.83
510.42	23312.03
510.63	23127.71
510.83	23099.04
511.04	23357.08
511.24	23436.95
511.44	23275.16
511.65	23428.76
511.85	23049.89
512.06	23428.76
512.26	23545.50
512.47	23418.52
512.67	23387.80
512.88	23678.61
513.08	23568.02
513.29	23836.31
513.49	23606.94
513.69	23760.53
513.90	23928.47
514.10	23965.33
514.31	23713.43
514.51	24065.68
514.72	23766.68
514.92	24057.49
515.13	24022.67
515.33	23895.70
515.53	23953.04
515.74	24223.37
515.94	24313.48
516.15	24258.19
516.35	23905.94
516.56	24600.20
516.76	24153.74
516.96	24268.43
517.17	24508.04
517.37	24508.04
517.58	24477.32
517.78	24626.82
517.99	24751.75
518.19	24872.58
518.39	24610.44
518.60	24733.32
518.80	24923.78
519.01	25089.67
519.21	24977.03
519.41	25075.33
519.62	25110.14
519.82	25216.64
520.03	25525.88
520.23	25204.35
520.43	25040.51
520.64	25605.75
520.84	25519.74
521.05	25308.80
521.25	25632.38
521.45	25429.63
521.66	25714.30
521.86	25597.56
522.07	25474.68
522.27	25734.78
522.47	26011.25
522.68	26127.99
522.88	25673.34
523.08	25947.76
523.29	25900.66
523.49	25904.76
523.70	26154.61
523.90	26330.73
524.10	26363.50
524.31	26676.84
524.51	26224.24
524.71	26668.65
524.92	26535.53
525.12	26789.48
525.33	26535.53
525.53	26869.35
525.73	26752.62
525.94	26795.62
526.14	26818.15
526.34	27092.58
526.55	27061.86
526.75	27098.72
526.95	26908.26
527.16	27012.71
527.36	27068.00
527.56	27330.14
527.77	27500.12
527.97	27557.47
528.17	27356.77
528.38	27659.87
528.58	27735.64
528.78	27571.80
528.99	27516.51
529.19	27899.48
529.39	27557.47
529.60	28057.17
529.80	27938.39
530.00	27973.21
530.21	28268.11
530.41	28419.66
530.61	28223.06
530.82	28358.22
531.02	28354.13
531.22	28620.36
531.43	28520.01
531.63	28569.16
531.83	29240.90
532.04	29101.64
532.24	29081.16
532.44	29191.75
532.64	28991.05
532.85	29449.79
533.05	29261.38
533.25	29556.28
533.46	29349.44
533.66	29662.78
533.86	29140.55
534.07	29949.50
534.27	29414.98
534.47	29849.14
534.67	29959.73
534.88	29765.18
535.08	30015.03
535.28	30158.39
535.49	30025.27
535.69	30387.76
535.89	30172.72
536.09	30379.57
536.30	30479.92
536.50	30813.74
536.70	30629.42
536.91	30363.18
537.11	30549.55
537.31	30561.84
537.51	30828.07
537.72	31010.34
537.92	30873.13
538.12	31450.66
538.32	31153.70
538.53	31235.62
538.73	31129.12
538.93	31051.30
539.13	31295.01
539.34	31055.40
539.54	31274.53
539.74	31393.31
539.94	31448.61
540.15	31295.01
540.35	32110.10
540.55	31606.30
540.75	31667.74
540.96	31942.17
541.16	31829.53
541.36	31852.06
541.56	31602.21
541.77	32122.39
541.97	32067.09
542.17	31929.88
542.37	32517.65
542.58	32288.28
542.78	32146.97
542.98	31899.16
543.18	32407.06
543.38	32411.15
543.59	32720.40
543.79	32433.68
543.99	32296.47
544.19	32423.44
544.40	32570.90
544.60	32798.22
544.80	32718.35
545.00	32673.29
545.20	32761.36
545.41	33027.59
545.61	33197.57
545.81	32849.42
546.01	33076.74
546.21	33295.88
546.42	32732.68
546.62	33310.21
546.82	33216.01
547.02	32998.92
547.22	33136.13
547.43	33285.64
547.63	33476.10
547.83	33164.81
548.03	32830.99
548.23	33660.41
548.44	33512.96
548.64	33773.05
548.84	33164.81
549.04	33682.94
549.24	34067.96
549.45	33916.41
549.65	33592.83
549.85	33756.67
550.05	34043.38
550.25	33983.99
550.45	34293.24
550.66	33951.23
550.86	33940.99
551.06	34438.64
551.26	33691.13
551.46	34211.32
551.66	33912.31
551.87	34014.71
552.07	34135.54
552.27	34176.50
552.47	34444.79
552.67	34461.17
552.87	33949.18
553.07	34418.16
553.28	34491.89
553.48	34532.85
553.68	34364.92
553.88	34614.77
554.08	34227.70
554.28	34649.58
554.48	34473.46
554.69	34495.99
554.89	34665.97
555.09	34500.08
555.29	34467.31
555.49	34682.35
555.69	34768.37
555.89	34985.45
556.10	35110.38
556.30	34557.42
556.50	35120.62
556.70	34751.98
556.90	34649.58
557.10	35016.17
557.30	34674.16
557.50	35382.76
557.70	35141.10
557.91	35419.62
558.11	34969.07
558.31	35141.10
558.51	35165.67
558.71	34901.48
558.91	35370.47
559.11	34907.63
559.31	35134.95
559.51	34893.29
559.72	35100.14
559.92	35347.94
560.12	35130.86
560.32	35483.11
560.52	35163.62
560.72	35431.91
560.92	35440.10
561.12	35345.89
561.32	35622.37
561.52	35167.72
561.72	35741.15
561.93	35431.91
562.13	35495.39
562.33	35522.02
562.53	36023.77
562.73	34917.87
562.93	35620.32
563.13	35562.98
563.33	35454.44
563.53	35452.39
563.73	35030.51
563.93	35257.83
564.13	35780.06
564.33	35323.36
564.53	35732.96
564.74	36357.59
564.94	35366.37
565.14	35884.51
565.34	35528.16
565.54	36339.16
565.74	36034.01
565.94	36283.86
566.14	35696.10
566.34	35970.52
566.54	36163.03
566.74	35624.42
566.94	35956.19
567.14	36314.58
567.34	35769.82
567.54	36058.59
567.74	36185.56
567.94	36083.16
568.14	36306.39
568.34	36220.38
568.54	36089.31
568.74	36394.45
568.94	36144.60
569.14	36345.30
569.34	36503.00
569.54	36314.58
569.75	36031.96
569.95	36214.23
570.15	36439.51
570.35	36586.96
570.55	36347.35
570.75	36247.00
570.95	36443.60
571.15	36351.45
571.35	36324.82
571.55	36754.90
571.75	36543.95
571.95	36251.09
572.15	36179.42
572.35	36736.46
572.55	36791.76
572.75	36648.40
572.95	36836.81
573.15	36574.67
573.35	36396.50
573.55	36578.77
573.75	36824.53
573.95	36734.42
574.15	36836.81
574.35	37174.73
574.55	36951.50
574.75	36830.67
574.95	37178.82
575.15	36597.20
575.34	37057.99
575.54	36869.58
575.74	37262.79
575.94	37025.23
576.14	36834.77
576.34	37516.74
576.54	37254.60
576.74	37336.52
576.94	36724.18
577.14	37209.54
577.34	37334.47
577.54	36926.92
577.74	37236.17
577.94	37514.69
578.14	37500.36
578.34	37594.56
578.54	37164.49
578.74	37266.89
578.94	37791.17
579.14	37397.96
579.34	37002.70
579.54	37778.88
579.74	37713.34
579.94	37350.85
580.13	37680.58
580.33	37594.56
580.53	37467.59
580.73	37842.37
580.93	37678.53
581.13	37805.50
581.33	37557.70
581.53	37819.84
581.73	37819.84
581.93	38112.70
582.13	37950.91
582.33	37971.39
582.53	38159.80
582.73	38284.73
582.92	38034.88
583.12	38264.25
583.32	38176.19
583.52	37897.66
583.72	38499.76
583.92	38059.45
584.12	38223.29
584.32	38624.69
584.52	38211.00
584.72	38516.15
584.92	38735.28
585.11	38868.40
585.31	38161.85
585.51	38933.93
585.71	38315.45
585.91	38755.76
586.11	38260.15
586.31	38684.08
586.51	38391.22
586.71	38522.29
586.91	38966.70
587.10	38651.31
587.30	38872.49
587.50	38757.81
587.70	38452.66
587.90	38974.89
588.10	38755.76
588.30	38639.03
588.50	39065.00
588.69	38852.02
588.89	38661.55
589.09	38835.63
589.29	39089.58
589.49	39167.40
589.69	38868.40
589.89	39361.96
590.08	39443.88
590.28	39159.21
590.48	39022.00
590.68	38946.22
590.88	39376.30
591.08	39237.03
591.28	38948.27
591.47	39263.66
591.67	39079.34
591.87	38843.82
592.07	39331.24
592.27	39443.88
592.47	39114.16
592.67	39562.66
592.86	39327.14
593.06	39597.48
593.26	39427.49
593.46	39368.10
593.66	39312.81
593.86	39163.31
594.05	39241.13
594.25	39597.48
594.45	39323.05
594.65	39374.25
594.85	39415.21
595.05	39775.65
595.24	39460.26
595.44	39263.66
595.64	39613.86
595.84	39654.82
596.04	39533.99
596.23	39677.35
596.43	39765.41
596.63	39654.82
596.83	39300.52
597.03	39830.94
597.22	40093.08
597.42	39779.74
597.62	39951.77
597.82	40265.11
598.02	39808.42
598.21	39665.06
598.41	39269.80
598.61	39884.19
598.81	40168.86
599.01	39886.24
599.20	40007.07
599.40	39976.35
599.60	40121.76
599.80	39949.73
600.00	39945.63
600.19	40283.55
600.39	39810.46
600.59	40334.74
600.79	40357.27
600.98	40177.05
601.18	40236.44
601.38	40424.86
601.58	40408.47
601.78	40412.57
601.97	40514.97
602.17	40613.27
602.37	40492.44
602.57	40279.45
602.76	40707.47
602.96	40455.57
603.16	40727.95
603.36	40545.69
603.55	40619.41
603.75	40617.36
603.95	40691.09
604.15	40508.82
604.34	40856.98
604.54	40422.81
604.74	40648.08
604.94	40918.42
605.13	40979.85
605.33	40754.58
605.53	40746.39
605.73	41026.96
605.92	41147.79
606.12	40895.89
606.32	41248.14
606.52	40791.44
606.71	41000.33
606.91	41194.89
607.11	41297.29
607.30	41307.53
607.50	41145.74
607.70	41160.08
607.90	41397.64
608.09	41299.34
608.29	41227.66
608.49	41072.01
608.68	41203.08
608.88	41371.02
609.08	41145.74
609.28	41141.64
609.47	40986.00
609.67	41581.96
609.87	41504.13
610.06	41667.97
610.26	41235.85
610.46	41424.26
610.66	41338.25
610.85	41293.19
611.05	41239.95
611.25	41411.98
611.44	41198.99
611.64	41614.72
611.84	41244.04
612.03	41287.05
612.23	41399.69
612.43	41448.84
612.62	41479.56
612.82	41315.72
613.02	41512.33
613.21	41203.08
613.41	41532.81
613.61	41328.01
613.80	40883.60
614.00	41530.76
614.20	41485.70
614.39	41385.35
614.59	41403.78
614.79	41170.32
614.98	41571.72
615.18	41477.51
615.38	41098.64
615.57	40605.08
615.77	41735.56
615.97	41299.34
616.16	41164.17
616.36	41246.09
616.56	41295.24
616.75	41168.27
616.95	41137.55
617.15	41551.24
617.34	41137.55
617.54	41121.16
617.74	41153.93
617.93	41188.75
618.13	41055.63
618.32	40836.50
618.52	41348.49
618.72	40695.19
618.91	41504.13
619.11	41090.44
619.31	41209.23
619.50	41127.31
619.70	40914.32
619.90	40971.66
620.09	40865.17
620.29	41168.27
620.48	40867.22
620.68	40875.41
620.88	40603.03
621.07	40619.41
621.27	41000.33
621.46	40631.70
621.66	40551.83
621.86	41108.88
622.05	40832.40
622.25	41377.16
622.44	40607.12
622.64	40639.89
622.84	40535.45
623.03	40365.46
623.23	40658.32
623.42	40828.30
623.62	41176.46
623.82	40916.37
624.01	40660.37
624.21	40392.09
624.40	40582.55
624.60	41094.54
624.80	40576.40
624.99	40813.97
625.19	40197.53
625.38	40838.54
625.58	40553.88
625.77	40490.39
625.97	40203.67
626.17	40314.26
626.36	40166.81
626.56	40519.06
626.75	40476.05
626.95	40514.97
627.14	40498.58
627.34	40646.04
627.54	40334.74
627.73	40580.50
627.93	40727.95
628.12	40258.97
628.32	40492.44
628.51	40291.74
628.71	40562.07
628.90	40328.60
629.10	40394.14
629.30	40580.50
629.49	40283.55
629.69	40246.68
629.88	40490.39
630.08	40361.37
630.27	40560.02
630.47	40697.24
630.66	40254.87
630.86	40693.14
631.05	40398.23
631.25	40377.75
631.44	40082.84
631.64	40107.42
631.84	40347.03
632.03	40629.65
632.23	40301.98
632.42	40543.64
632.62	40324.50
632.81	40129.95
633.01	40359.32
633.20	40189.34
633.40	40308.12
633.59	40277.40
633.79	40099.23
633.98	40471.96
634.18	40211.87
634.37	40347.03
634.57	40029.60
634.76	40113.56
634.96	40228.25
635.15	40496.53
635.35	40576.40
635.54	39937.44
635.74	40428.95
635.93	40050.08
636.13	40633.75
636.32	40492.44
636.52	39734.69
636.71	40015.26
636.91	40125.85
637.10	40445.33
637.30	40332.70
637.49	40291.74
637.69	40211.87
637.88	40220.06
638.08	39996.83
638.27	40166.81
638.46	40035.74
638.66	40234.39
638.85	39710.11
639.05	40461.72
639.24	40455.57
639.44	39720.35
639.63	40019.36
639.83	39925.15
640.02	40023.45
640.22	39832.99
640.41	40138.14
640.61	39982.49
640.80	39724.45
640.99	39908.77
641.19	40625.56
641.38	39976.35
641.58	40129.95
641.77	39982.49
641.97	40015.26
642.16	39787.94
642.36	39986.59
642.55	40179.10
642.74	40039.84
642.94	40314.26
643.13	39830.94
643.33	40072.60
643.52	40050.08
643.72	40080.80
643.91	39794.08
644.10	39878.05
644.30	40160.67
644.49	39845.28
644.69	39931.29
644.88	40150.43
645.08	40021.41
645.27	39941.53
645.46	39798.18
645.66	39771.55
645.85	39849.38
646.05	39992.73
646.24	39658.91
646.43	39873.95
646.63	40482.20
646.82	40328.60
647.02	40336.79
647.21	40228.25
647.40	39599.52
647.60	40023.45
647.79	39740.83
647.99	40078.75
648.18	40205.72
648.37	40250.78
648.57	40117.66
648.76	39990.69
648.96	39695.78
649.15	40156.57
649.34	40066.46
649.54	40002.97
649.73	39654.82
649.92	39865.76
650.12	39941.53
650.31	39908.77
650.51	40062.36
650.70	40023.45
650.89	39898.53
651.09	40277.40
651.28	40115.61
651.47	40086.94
651.67	40052.12
651.86	40041.88
652.06	39523.75
652.25	40076.70
652.44	39994.78
652.64	39695.78
652.83	39361.96
653.02	40209.82
653.22	39513.51
653.41	39703.97
653.60	39636.39
653.80	39613.86
653.99	39978.40
654.18	39607.72
654.38	39955.87
654.57	39910.82
654.76	39896.48
654.96	39755.17
655.15	39728.55
655.34	39912.86
655.54	39656.87
655.73	40121.76
655.92	39628.20
656.12	39888.29
656.31	39613.86
656.50	39593.38
656.70	39400.87
656.89	39646.63
657.08	39703.97
657.28	39794.08
657.47	39413.16
657.66	39579.04
657.86	39724.45
658.05	39859.62
658.24	39749.03
658.43	39501.22
658.63	39456.17
658.82	39859.62
659.01	39783.84
659.21	39699.87
659.40	39974.30
659.59	39458.21
659.79	39681.44
659.98	39673.25
660.17	39957.92
660.36	39370.15
660.56	39708.07
660.75	39742.88
660.94	39620.00
661.14	39814.56
661.33	39564.71
661.52	39169.45
661.71	40039.84
661.91	39353.77
662.10	39210.41
662.29	39646.63
662.49	39321.00
662.68	39361.96
662.87	39357.86
663.06	39579.04
663.26	39308.71
663.45	39794.08
663.64	38956.46
663.83	39822.75
664.03	39482.79
664.22	39366.06
664.41	39198.12
664.60	39017.90
664.80	38976.94
664.99	39523.75
665.18	39161.26
665.37	39437.73
665.57	39564.71
665.76	39173.55
665.95	39380.39
666.14	39341.48
666.34	39177.64
666.53	39048.62
666.72	38976.94
666.91	38993.32
667.11	39101.87
667.30	39011.76
667.49	39224.75
667.68	39169.45
667.87	39112.11
668.07	38964.65
668.26	39212.46
668.45	39050.67
668.64	38694.32
668.84	39140.78
669.03	38856.11
669.22	38794.67
669.41	39116.20
669.60	39175.59
669.80	38901.17
669.99	39038.38
670.18	38970.80
670.37	38626.74
670.57	39032.24
670.76	38870.45
670.95	38919.60
671.14	39136.68
671.33	38778.29
671.53	38874.54
671.72	38745.52
671.91	38919.60
672.10	38647.22
672.29	38827.44
672.48	38311.35
672.68	38714.80
672.87	38602.16
673.06	38393.27
673.25	38530.48
673.44	38624.69
673.64	38313.40
673.83	38467.00
674.02	38483.38
674.21	38606.26
674.40	38772.14
674.59	38507.96
674.79	38229.43
674.98	38313.40
675.17	38542.77
675.36	37920.19
675.55	38739.38
675.74	37938.62
675.94	38292.92
676.13	38329.78
676.32	38698.42
676.51	38518.20
676.70	38385.08
676.89	38450.61
677.08	38399.41
677.28	37914.05
677.47	38415.80
677.66	38835.63
677.85	38163.90
678.04	38636.98
678.23	38546.87
678.42	38389.17
678.62	38151.61
678.81	38376.89
679.00	38233.53
679.19	38311.35
679.38	38356.41
679.57	38143.42
679.76	38006.20
679.96	38440.37
680.15	37836.22
680.34	38069.69
680.53	37893.57
680.72	38004.16
680.91	38131.13
681.10	38155.71
681.29	37711.30
681.48	37666.24
681.68	37404.10
681.87	37670.34
682.06	37897.66
682.25	37785.02
682.44	37993.92
682.63	38239.67
682.82	37475.78
683.01	37836.22
683.20	37854.65
683.39	37787.07
683.59	37412.29
683.78	37400.01
683.97	37479.88
684.16	37336.52
684.35	37166.54
684.54	37402.05
684.73	37357.00
684.92	37223.88
685.11	36939.21
685.30	37211.59
685.49	37410.25
685.69	37148.11
685.88	37088.71
686.07	37373.38
686.26	37266.89
686.45	37111.24
686.64	37148.11
686.83	37146.06
687.02	37197.26
687.21	37070.28
687.40	37215.69
687.59	36859.34
687.78	37062.09
687.97	37078.47
688.16	37008.84
688.35	36556.24
688.54	36888.01
688.74	37109.19
688.93	36509.14
689.12	36494.80
689.31	36722.13
689.50	36734.42
689.69	36308.44
689.88	36193.75
690.07	36609.49
690.26	36603.35
690.45	36783.57
690.64	36582.87
690.83	36730.32
691.02	36431.32
691.21	36369.88
691.40	36337.11
691.59	36687.31
691.78	36308.44
691.97	36517.33
692.16	36386.26
692.35	36513.23
692.54	36263.38
692.73	36347.35
692.92	36236.76
693.11	36400.60
693.30	36130.26
693.49	36158.94
693.68	36111.83
693.87	36081.11
694.06	35798.49
694.25	36027.87
694.44	35923.42
694.63	35982.81
694.82	36015.58
695.01	36064.73
695.20	35919.32
695.39	35751.39
695.58	35773.92
695.77	35765.73
695.96	35567.07
696.15	35927.52
696.34	35786.21
696.53	35253.73
696.72	35573.22
696.91	35415.52
697.10	35636.70
697.29	35683.81
697.48	35280.36
697.67	35161.58
697.86	35388.90
698.05	35137.00
698.24	35495.39
698.43	35198.44
698.62	35296.74
698.81	35235.30
699.00	35313.13
699.19	34756.08
699.38	35093.99
699.57	34756.08
699.76	35276.26
699.95	35073.51
700.14	35132.90
700.32	35149.29
700.51	34940.39
700.70	35251.69
700.89	35192.30
701.08	34971.11
701.27	34794.99
701.46	35028.46
701.65	34635.25
701.84	34633.20
702.03	34907.63
702.22	34907.63
702.41	34629.10
702.60	34751.98
702.79	34635.25
702.98	34403.83
703.17	34659.82
703.35	34682.35
703.54	34739.69
703.73	34780.65
703.92	34727.41
704.11	34592.24
704.30	34530.80
704.49	34424.31
704.68	34059.77
704.87	34407.92
705.06	33947.13
705.25	34276.85
705.43	34043.38
705.62	34205.17
705.81	33990.14
706.00	34264.57
706.19	33777.15
706.38	33979.90
706.57	33902.07
706.76	34049.53
706.95	34287.09
707.14	33926.65
707.32	33648.13
707.51	33656.32
707.70	33584.64
707.89	33895.93
708.08	33830.40
708.27	33668.61
708.46	33711.61
708.65	33641.98
708.84	33521.15
709.02	33551.87
709.21	33717.76
709.40	33859.07
709.59	33420.80
709.78	33326.60
709.97	33304.07
710.16	33529.34
710.34	33123.85
710.53	33181.19
710.72	33127.94
710.91	33670.65
711.10	33562.11
711.29	33297.92
711.48	33205.77
711.66	33451.52
711.85	32947.72
712.04	33113.61
712.23	32978.44
712.42	32873.99
712.61	32765.45
712.80	32796.17
712.98	32884.23
713.17	32955.91
713.36	32794.12
713.55	32990.73
713.74	32953.87
713.93	32470.54
714.11	32482.83
714.30	32630.29
714.49	32501.26
714.68	32374.29
714.87	32499.22
715.06	32437.78
715.24	32642.57
715.43	32470.54
715.62	32378.39
715.81	32511.50
716.00	32710.16
716.18	32194.07
716.37	32144.92
716.56	31817.24
716.75	32280.08
716.94	32093.72
717.12	31964.70
717.31	32144.92
717.50	32316.95
717.69	31774.24
717.88	31938.07
718.06	31432.22
718.25	31948.31
718.44	31696.41
718.63	31622.69
718.82	31573.53
719.00	31696.41
719.19	31577.63
719.38	31501.86
719.57	31346.21
719.76	31016.49
719.94	30981.67
720.13	31364.64
720.32	31520.29
720.51	31024.68
720.69	31075.88
720.88	30643.76
721.07	31133.22
721.26	30578.22
721.44	30889.51
721.63	31084.07
721.82	30645.80
722.01	30748.20
722.20	30834.22
722.38	30660.14
722.57	30529.07
722.76	30740.01
722.95	30578.22
723.13	30477.87
723.32	30127.67
723.51	30498.35
723.70	30252.59
723.88	30340.66
724.07	29996.60
724.26	30291.51
724.44	29777.47
724.63	30264.88
724.82	30213.68
725.01	30023.22
725.19	30217.78
725.38	29865.53
725.57	29959.73
725.76	30029.37
725.94	29904.44
726.13	29845.05
726.32	29818.42
726.51	29621.82
726.69	30031.41
726.88	29910.58
727.07	29644.35
727.25	29761.08
727.44	29713.98
727.63	29898.30
727.82	29554.24
728.00	29511.23
728.19	29640.25
728.38	29642.30
728.56	29449.79
728.75	29331.01
728.94	29492.80
729.12	29658.68
729.31	29630.01
729.50	29490.75
729.69	29439.55
729.87	29752.89
730.06	29763.13
730.25	29580.86
730.43	29568.57
730.62	29279.81
730.81	29511.23
730.99	29713.98
731.18	29210.18
731.37	29075.01
731.55	29505.09
731.74	29335.10
731.93	29255.23
732.11	29435.45
732.30	29468.22
732.49	29220.42
732.67	29294.14
732.86	29275.71
733.05	29034.05
733.23	29218.37
733.42	29204.03
733.61	29146.69
733.79	29292.10
733.98	28931.65
734.17	29210.18
734.35	28890.70
734.54	29195.84
734.73	29085.25
734.91	28978.76
735.10	28896.84
735.29	29083.20
735.47	28937.80
735.66	28692.04
735.84	28937.80
736.03	28864.07
736.22	28964.42
736.40	28819.02
736.59	28659.27
736.78	28909.13
736.96	28767.82
737.15	28689.99
737.33	28386.89
737.52	28716.62
737.71	28358.22
737.89	28689.99
738.08	28571.21
738.27	28438.09
738.45	28642.89
738.64	28485.20
738.82	28116.56
739.01	28106.32
739.20	28436.05
739.38	28235.35
739.57	28585.55
739.75	28661.32
739.94	28634.70
740.13	28474.96
740.31	28325.46
740.50	28300.88
740.68	28098.13
740.87	27860.57
741.06	28028.50
741.24	27956.82
741.43	27956.82
741.61	27979.35
741.80	27700.83
741.99	28083.80
742.17	27852.38
742.36	28053.08
742.54	27465.31
742.73	27758.17
742.91	27960.92
743.10	27752.02
743.29	27666.01
743.47	27641.43
743.66	27680.35
743.84	27717.21
744.03	27827.80
744.21	27516.51
744.40	27700.83
744.59	27672.15
744.77	27403.87
744.96	27555.42
745.14	27962.97
745.33	27498.08
745.51	27338.33
745.70	27584.09
745.88	27514.46
746.07	27274.85
746.26	27342.43
746.44	27213.41
746.63	27111.01
746.81	27504.22
747.00	27211.36
747.18	27254.37
747.37	27182.69
747.55	27078.24
747.74	27223.65
747.92	26979.94
748.11	27041.38
748.29	27078.24
748.48	26998.37
748.66	26807.91
748.85	27080.29
749.03	27035.24
749.22	27276.90
749.41	26740.33
749.59	27012.71
749.78	27119.20
749.96	26496.62
750.15	26476.14
750.33	26828.39
750.52	26695.27
750.70	27010.66
750.89	26373.74
751.07	26416.75
751.26	26648.17
751.44	26416.75
751.63	26441.32
751.81	26328.69
752.00	26146.42
752.18	26492.52
752.37	26556.01
752.55	26553.96
752.74	26519.15
752.92	26631.79
753.10	26056.31
753.29	26189.42
753.47	26244.72
753.66	26125.94
753.84	26326.64
754.03	26125.94
754.21	26195.57
754.40	26277.49
754.58	26332.78
754.77	25880.18
754.95	26062.45
755.14	25874.04
755.32	26132.08
755.51	25851.51
755.69	25837.17
755.88	25542.27
756.06	25755.26
756.24	25783.93
756.43	25970.29
756.61	25499.26
756.80	25634.42
756.98	25609.85
757.17	25544.31
757.35	25298.56
757.54	25661.05
757.72	25638.52
757.90	25489.02
758.09	25671.29
758.27	25693.82
758.46	25310.85
758.64	25468.54
758.83	25536.12
759.01	25235.07
759.19	25089.67
759.38	25618.04
759.56	25360.00
759.75	25351.81
759.93	25177.73
760.12	25407.10
760.30	25173.63
760.48	25228.93
760.67	25403.00
760.85	25384.57
761.04	24888.96
761.22	25476.73
761.40	25196.16
761.59	25134.72
761.77	24727.17
761.96	24805.00
762.14	24966.79
762.32	24950.40
762.51	24901.25
762.69	24770.18
762.88	24987.27
763.06	25179.78
763.24	24745.61
763.43	24819.33
763.61	24653.45
763.80	24882.82
763.98	24645.26
764.16	24678.02
764.35	24747.65
764.53	24215.18
764.72	24462.99
764.90	24788.61
765.08	24462.99
765.27	24909.44
765.45	24307.34
765.63	24465.03
765.82	24567.43
766.00	24270.48
766.18	24483.47
766.37	24659.59
766.55	24139.41
766.74	24465.03
766.92	24219.28
767.10	24163.98
767.29	24379.02
767.47	24192.65
767.65	24282.77
767.84	24010.39
768.02	24161.94
768.20	23928.47
768.39	24329.87
768.57	24098.45
768.75	23805.59
768.94	24090.26
769.12	23940.75
769.30	23834.26
769.49	23922.32
769.67	23826.07
769.85	23531.16
770.04	23809.68
770.22	24022.67
770.40	23649.94
770.59	23565.98
770.77	23897.75
770.95	23414.43
771.14	23692.95
771.32	23797.40
771.50	23344.80
771.69	23443.10
771.87	23574.17
772.05	23486.11
772.24	23219.87
772.42	23545.50
772.60	23369.37
772.78	23273.12
772.97	23488.15
773.15	23246.49
773.33	23223.97
773.52	23013.02
773.70	23295.64
773.88	23180.96
774.07	23275.16
774.25	23090.85
774.43	23178.91
774.61	23187.10
774.80	23531.16
774.98	23150.24
775.16	23193.25
775.34	23279.26
775.53	22922.91
775.71	23008.93
775.89	23070.37
776.08	23103.14
776.26	23195.29
776.44	23103.14
776.62	23051.94
776.81	23115.42
776.99	23111.33
777.17	23191.20
777.35	23207.58
777.54	23168.67
777.72	22806.18
777.90	23070.37
778.08	23328.41
778.27	23156.38
778.45	23385.76
778.63	23316.12
778.81	22812.32
779.00	23285.40
779.18	23113.38
779.36	23408.28
779.54	23043.74
779.73	22906.53
779.91	23348.89
780.09	23309.98
780.27	23064.22
780.46	23119.52
780.64	23430.81
780.82	23062.18
781.00	23099.04
781.19	23410.33
781.37	23273.12
781.55	23209.63
781.73	23600.79
781.91	23238.30
782.10	23455.39
782.28	23365.28
782.46	23416.47
782.64	23512.73
782.82	23422.62
783.01	23516.83
783.19	23170.72
783.37	23447.19
783.55	23228.06
783.74	23193.25
783.92	23133.86
784.10	23160.48
784.28	23402.14
784.46	23289.50
784.64	23019.17
784.83	23740.05
785.01	23492.25
785.19	23336.60
785.37	23080.61
785.55	23109.28
785.74	23033.50
785.92	22814.37
786.10	23053.98
786.28	23023.26
786.46	23031.46
786.64	22845.09
786.83	22986.40
787.01	23035.55
787.19	22929.06
787.37	23174.81
787.55	22841.00
787.74	22597.29
787.92	23133.86
788.10	22605.48
788.28	22486.70
788.46	22863.52
788.64	22668.97
788.82	23019.17
789.01	22959.78
789.19	22679.21
789.37	22675.11
789.55	22607.53
789.73	22515.37
789.91	22445.74
790.09	22576.81
790.28	22447.79
790.46	22283.95
790.64	22398.63
790.82	22259.37
791.00	22226.60
791.18	22300.33
791.36	22445.74
791.55	22326.96
791.73	22171.31
791.91	21845.68
792.09	21995.18
792.27	21921.46
792.45	21823.16
792.63	21909.17
792.81	21921.46
793.00	21769.91
793.18	21608.12
793.36	21860.02
793.54	21610.17
793.72	21448.38
793.90	21774.00
794.08	21706.42
794.26	21673.65
794.44	21192.38
794.62	21358.27
794.81	21485.24
794.99	21386.94
795.17	21302.97
795.35	21223.10
795.53	21182.14
795.71	21141.18
795.89	21212.86
796.07	20846.27
796.25	21044.93
796.43	21173.95
796.61	20932.29
796.80	21001.92
796.98	20930.24
797.16	20801.22
797.34	20911.81
797.52	20926.14
797.70	20756.16
797.88	20477.64
798.06	20721.35
798.24	20272.84
798.42	20811.46
798.60	20350.67
798.78	20088.53
798.96	20600.52
799.14	20297.42
799.32	20504.26
799.51	20092.62
799.69	20252.36
799.87	20418.25
800.05	19957.46
800.23	20293.32
800.41	20090.57
800.59	19941.07
800.77	19996.37
800.95	19762.90
801.13	19793.62
801.31	19783.38
801.49	19914.45
801.67	19988.18
801.85	19695.32
802.03	19668.69
802.21	19554.01
802.39	19592.92
802.57	19449.56
802.75	19640.02
802.93	19597.01
803.11	19576.53
803.29	19222.23
803.47	19384.02
803.65	19326.68
803.83	19537.62
804.01	19158.75
804.19	18949.85
804.37	19033.82
804.55	18751.20
804.73	19250.91
804.91	19234.52
805.09	19113.69
805.27	18980.57
805.45	18896.61
805.63	18800.35
805.81	18812.64
805.99	18933.47
806.17	18788.07
806.35	18548.45
806.53	18673.38
806.71	18757.35
806.89	18585.32
807.07	18470.63
807.25	18487.01
807.43	18695.91
807.61	18552.55
807.79	18337.51
807.97	18269.93
808.15	18339.56
808.33	18044.65
808.51	18384.62
808.69	18355.94
808.87	18081.52
809.05	18177.77
809.23	18169.58
809.41	17655.54
809.59	17811.18
809.77	17835.76
809.95	17813.23
810.13	18061.04
810.31	17737.46
810.49	17819.38
810.67	17688.31
810.84	17522.42
811.02	17817.33
811.20	17802.99
811.38	17821.42
811.56	17409.78
811.74	17616.63
811.92	17336.06
812.10	17436.41
812.28	17534.71
812.46	17329.91
812.64	17280.76
812.82	17250.04
813.00	17061.63
813.18	17540.85
813.36	17188.60
813.53	17104.64
813.71	17090.30
813.89	17204.99
814.07	17223.42
814.25	17297.14
814.43	16987.90
814.61	17035.00
814.79	16963.33
814.97	16971.52
815.15	16727.81
815.33	16748.29
815.50	16682.75
815.68	16869.12
815.86	16770.82
816.04	16731.90
816.22	16502.53
816.40	16697.09
816.58	16709.38
816.76	16469.76
816.94	16647.94
817.11	16574.21
817.29	16459.52
817.47	16502.53
817.65	16181.00
817.83	16301.83
818.01	15994.64
818.19	16135.95
818.37	16172.81
818.54	16045.84
818.72	16111.37
818.90	16068.36
819.08	16127.75
819.26	16099.08
819.44	16058.12
819.62	16082.70
819.80	15918.86
819.97	16058.12
820.15	15761.17
820.33	15873.81
820.51	15859.47
820.69	15757.07
820.87	15802.13
821.05	16105.23
821.22	15748.88
821.40	15611.67
821.58	15709.97
821.76	15544.08
821.94	15470.36
822.12	15517.46
822.29	15675.15
822.47	15552.27
822.65	15560.47
822.83	15609.62
823.01	15453.97
823.19	15591.19
823.36	15355.67
823.54	15351.57
823.72	15634.19
823.90	15220.50
824.08	15273.75
824.25	15351.57
824.43	15396.63
824.61	15224.60
824.79	15247.13
824.97	15042.33
825.15	15283.99
825.32	15216.41
825.50	15034.14
825.68	15005.47
825.86	15161.11
826.04	15062.81
826.21	14878.49
826.39	15027.99
826.57	14941.98
826.75	14751.52
826.93	14870.30
827.10	14876.44
827.28	14933.79
827.46	14948.12
827.64	14628.64
827.81	14837.53
827.99	14778.14
828.17	14772.00
828.35	14769.95
828.53	14473.00
828.70	14522.15
828.88	14544.67
829.06	14630.69
829.24	14759.71
829.41	14370.60
829.59	14696.22
829.77	14540.58
829.95	14305.06
830.12	14470.95
830.30	14466.85
830.48	14460.71
830.66	14360.36
830.84	14303.01
831.01	14333.73
831.19	14257.96
831.37	14300.97
831.55	14178.09
831.72	14126.89
831.90	14434.08
832.08	14151.46
832.25	14198.57
832.43	14206.76
832.61	14130.98
832.79	13979.43
832.96	13838.12
833.14	13963.05
833.32	14229.29
833.50	13979.43
833.67	14028.59
833.85	13958.96
834.03	13836.08
834.20	13879.08
834.38	13887.28
834.56	13946.67
834.74	13920.04
834.91	13735.73
835.09	13881.13
835.27	13692.72
835.44	13918.00
835.62	13637.42
835.80	13766.45
835.98	13604.66
836.15	13764.40
836.33	13764.40
836.51	13803.31
836.68	13600.56
836.86	13672.24
837.04	13772.59
837.21	13461.30
837.39	13662.00
837.57	13528.88
837.75	13797.17
837.92	13530.93
838.10	13449.01
838.28	13422.39
838.45	13410.10
838.63	13494.07
838.81	13449.01
838.98	13344.56
839.16	13326.13
839.34	13266.74
839.51	13287.22
839.69	13096.76
839.87	13242.17
840.04	13174.58
840.22	13350.71
840.40	13346.61
840.57	13225.78
840.75	13025.08
840.93	13188.92
841.10	12980.03
841.28	13238.07
841.46	12975.93
841.63	12904.25
841.81	12855.10
841.98	13061.94
842.16	13117.24
842.34	12973.88
842.51	12771.13
842.69	12824.38
842.87	13035.32
843.04	12910.40
843.22	12910.40
843.40	12943.16
843.57	12844.86
843.75	12838.72
843.92	13020.99
844.10	12781.37
844.28	12857.15
844.45	12762.94
844.63	12627.78
844.81	12560.19
844.98	12670.78
845.16	12861.24
845.33	12715.84
845.51	12676.93
845.69	12584.77
845.86	12584.77
846.04	12699.45
846.21	12494.66
846.39	12517.18
846.57	12707.65
846.74	12482.37
846.92	12539.71
847.09	12474.18
847.27	12496.71
847.45	12506.95
847.62	12652.35
847.80	12498.75
847.97	12388.16
848.15	12496.71
848.32	12341.06
848.50	12517.18
848.68	12396.35
848.85	12156.74
849.03	12119.88
849.20	12261.19
849.38	12523.33
849.56	12189.51
849.73	12123.98
849.91	12228.42
850.08	12293.96
850.26	12267.33
850.43	12195.65
850.61	12212.04
850.78	12017.48
850.96	12113.74
851.14	11898.70
851.31	12140.36
851.49	11972.43
851.66	12003.14
851.84	11892.55
852.01	11968.33
852.19	12089.16
852.36	12046.15
852.54	11908.94
852.71	11884.36
852.89	11810.64
853.07	11878.22
853.24	11908.94
853.42	11982.67
853.59	11716.43
853.77	11929.42
853.94	11810.64
854.12	11839.31
854.29	11548.50
854.47	11933.51
854.64	11513.68
854.82	11710.29
854.99	11732.81
855.17	11691.85
855.34	11667.28
855.52	11558.74
855.69	11724.62
855.87	11609.93
856.04	11519.82
856.22	11530.06
856.39	11628.37
856.57	11456.34
856.74	11528.02
856.92	11571.02
857.09	11337.56
857.27	11343.70
857.44	11505.49
857.62	11415.38
857.79	11284.31
857.97	11378.51
858.14	11302.74
858.32	11202.39
858.49	11394.90
858.67	11497.30
858.84	11278.16
859.02	11327.32
859.19	11229.01
859.37	11278.16
859.54	11200.34
859.72	11267.92
859.89	10934.11
860.06	11179.86
860.24	11044.70
860.41	11202.39
860.59	10882.91
860.76	10880.86
860.94	10891.10
861.11	10889.05
861.29	10878.81
861.46	10970.97
861.64	10790.75
861.81	10878.81
861.98	11132.76
862.16	10862.43
862.33	10813.28
862.51	10907.48
862.68	10721.12
862.86	10700.64
863.03	10788.70
863.21	10782.56
863.38	10776.41
863.55	10708.83
863.73	10680.16
863.90	10700.64
864.08	10708.83
864.25	10471.26
864.43	10592.09
864.60	10487.65
864.77	10495.84
864.95	10522.46
865.12	10368.87
865.30	10377.06
865.47	10493.79
865.64	10504.03
865.82	10264.42
865.99	10487.65
866.17	10479.46
866.34	10276.71
866.51	10389.35
866.69	10198.88
866.86	10385.25
867.04	10264.42
867.21	10452.83
867.38	10164.07
867.56	10332.00
867.73	10299.23
867.91	10223.46
868.08	10295.14
868.25	10233.70
868.43	10256.23
868.60	10125.16
868.78	10221.41
868.95	10221.41
869.12	10200.93
869.30	10145.64
869.47	9971.56
869.64	9891.69
869.82	9926.50
869.99	9901.93
870.16	10035.05
870.34	9994.09
870.51	10022.76
870.69	9852.78
870.86	9858.92
871.03	10020.71
871.21	9938.79
871.38	9895.78
871.55	9973.61
871.73	9899.88
871.90	9777.00
872.07	9697.13
872.25	9699.18
872.42	9514.86
872.59	9664.36
872.77	9549.68
872.94	9693.04
873.11	9656.17
873.29	9564.01
873.46	9475.95
873.63	9600.88
873.81	9428.85
873.98	9459.57
874.15	9688.94
874.33	9512.81
874.50	9422.70
874.67	9240.44
874.85	9408.37
875.02	9283.44
875.19	9148.28
875.37	9361.27
875.54	9394.03
875.71	9369.46
875.88	9258.87
876.06	9301.87
876.23	9289.59
876.40	9338.74
876.58	9262.96
876.75	9090.93
876.92	9062.26
877.10	9258.87
877.27	9215.86
877.44	9115.51
877.61	9099.13
877.79	9142.13
877.96	9025.40
878.13	9140.08
878.31	9019.25
878.48	8847.22
878.65	8992.63
878.82	8894.33
879.00	8824.70
879.17	8857.46
879.34	8888.18
879.51	8855.42
879.69	8814.46
879.86	8882.04
880.03	8732.54
880.21	8679.29
880.38	9002.87
880.55	8775.55
880.72	8978.30
880.90	8994.68
881.07	8726.39
881.24	8779.64
881.41	8796.03
881.59	8701.82
881.76	8820.60
881.93	8669.05
882.10	8683.39
882.28	8781.69
882.45	8814.46
882.62	8572.80
882.79	8691.58
882.96	8552.32
883.14	8648.57
883.31	8560.51
883.48	8585.08
883.65	8609.66
883.83	8517.50
884.00	8529.79
884.17	8673.15
884.34	8431.49
884.51	8513.41
884.69	8574.85
884.86	8511.36
885.03	8458.11
885.20	8404.86
885.38	8695.68
885.55	8497.02
885.72	8380.29
885.89	8509.31
886.06	8462.21
886.24	8456.06
886.41	8388.48
886.58	8603.52
886.75	8523.65
886.92	8517.50
887.10	8443.78
887.27	8339.33
887.44	8310.66
887.61	8507.26
887.78	8269.70
887.95	8329.09
888.13	8181.64
888.30	8165.25
888.47	8183.68
888.64	8372.10
888.81	8081.28
888.99	8335.23
889.16	8062.85
889.33	8140.68
889.50	8193.92
889.67	8341.38
889.84	8155.01
890.01	8046.47
890.19	8091.52
890.36	8015.75
890.53	8212.35
890.70	7927.69
890.87	7997.32
891.04	8021.89
891.22	7942.02
891.39	7929.74
891.56	7950.21
891.73	7849.86
891.90	8003.46
892.07	7980.93
892.24	8060.80
892.42	7866.25
892.59	7952.26
892.76	7927.69
892.93	7884.68
893.10	7950.21
893.27	8030.09
893.44	7921.54
893.61	7825.29
893.79	7827.34
893.96	7784.33
894.13	7866.25
894.30	7899.02
894.47	7669.64
894.64	7851.91
894.81	7712.65
894.98	7851.91
895.15	7794.57
895.33	7602.06
895.50	7765.90
895.67	7675.79
895.84	7667.60
896.01	7755.66
896.18	7675.79
896.35	7729.03
896.52	7704.46
896.69	7632.78
896.86	7819.14
897.04	7755.66
897.21	7661.45
897.38	7757.71
897.55	7718.79
897.72	7720.84
897.89	7743.37
898.06	7700.36
898.23	7692.17
898.40	7636.88
898.57	7608.20
898.74	7516.05
898.91	7602.06
899.08	7413.65
899.26	7698.31
899.43	7509.90
899.60	7612.30
899.77	7626.64
899.94	7528.33
900.11	7528.33
900.28	7593.87
900.45	7565.20
900.62	7466.89
900.79	7462.80
900.96	7411.60
901.13	7403.41
901.30	7372.69
901.47	7530.38
901.64	7491.47
901.81	7565.20
901.98	7718.79
902.15	7583.63
902.32	7497.61
902.49	7473.04
902.66	7346.06
902.83	7473.04
903.01	7452.56
903.18	7427.98
903.35	7522.19
903.52	7481.23
903.69	7694.22
903.86	7557.00
904.03	7530.38
904.20	7516.05
904.37	7473.04
904.54	7331.73
904.71	7323.54
904.88	7479.18
905.05	7339.92
905.22	7403.41
905.39	7368.59
905.56	7389.07
905.73	7329.68
905.90	7571.34
906.07	7378.83
906.24	7444.37
906.41	7448.46
906.58	7341.97
906.75	7430.03
906.92	7262.10
907.09	7223.19
907.26	7563.15
907.43	7606.16
907.60	7419.79
907.77	7464.85
907.93	7333.78
908.10	7264.15
908.27	7546.76
908.44	7344.02
908.61	7264.15
908.78	7419.79
908.95	7389.07
909.12	7219.09
909.29	7317.39
909.46	7376.78
909.63	7298.96
909.80	7317.39
909.97	7335.82
910.14	7292.82
910.31	7298.96
910.48	7436.17
910.65	7264.15
910.82	7233.43
910.99	7075.73
911.16	7114.64
911.33	7200.66
911.50	6956.95
911.66	7106.45
911.83	7317.39
912.00	7196.56
912.17	6967.19
912.34	7098.26
912.51	6975.38
912.68	6989.72
912.85	7061.40
913.02	7290.77
913.19	7124.88
913.36	7184.27
913.53	7219.09
913.70	7012.24
913.86	7165.84
914.03	6946.71
914.20	6973.33
914.37	6950.81
914.54	6938.52
914.71	6840.22
914.88	6899.61
915.05	6844.31
915.22	6928.28
915.39	6952.85
915.55	6991.77
915.72	6811.54
915.89	6717.34
916.06	6688.67
916.23	6772.63
916.40	6786.97
916.57	6731.67
916.74	6696.86
916.91	6791.06
917.07	6727.58
917.24	6576.03
917.41	6588.32
917.58	6684.57
917.75	6565.79
917.92	6535.07
918.09	6522.78
918.26	6621.08
918.42	6514.59
918.59	6418.33
918.76	6498.20
918.93	6299.55
919.10	6463.39
919.27	6422.43
919.44	6502.30
919.60	6442.91
919.77	6508.44
919.94	6369.18
920.11	6381.47
920.28	6416.29
920.45	6307.74
920.61	6199.20
920.78	6201.25
920.95	6277.02
921.12	6215.59
921.29	6113.19
921.46	6176.67
921.62	6053.80
921.79	6094.76
921.96	6209.44
922.13	6037.41
922.30	6158.24
922.47	6061.99
922.63	6029.22
922.80	5973.92
922.97	6016.93
923.14	6008.74
923.31	5996.45
923.47	6004.64
923.64	5955.49
923.81	5994.40
923.98	6010.79
924.15	5975.97
924.32	5892.01
924.48	5867.43
924.65	5805.99
924.82	5709.74
924.99	5805.99
925.15	5670.83
925.32	5871.53
925.49	5779.37
925.66	5779.37
925.83	5713.83
925.99	5590.95
926.16	5590.95
926.33	5584.81
926.50	5420.97
926.67	5625.77
926.83	5605.29
927.00	5472.17
927.17	5574.57
927.34	5416.88
927.50	5513.13
927.67	5631.91
927.84	5459.88
928.01	5453.74
928.17	5414.83
928.34	5463.98
928.51	5287.86
928.68	5294.00
928.84	5334.96
929.01	5248.94
929.18	5156.79
929.35	5228.46
929.51	5183.41
929.68	5212.08
929.85	5187.50
930.02	5267.38
930.18	5214.13
930.35	5101.49
930.52	5119.92
930.69	5134.26
930.85	5095.35
931.02	5068.72
931.19	4874.17
931.36	5025.72
931.52	5003.19
931.69	5081.01
931.86	4999.09
932.02	4966.32
932.19	4868.02
932.36	4913.08
932.53	4943.80
932.69	4790.20
932.86	4804.53
933.03	4730.81
933.19	4753.34
933.36	4749.24
933.53	4663.22
933.70	4712.38
933.86	4702.14
934.03	4730.81
934.20	4548.54
934.36	4472.76
934.53	4511.68
934.70	4401.08
934.86	4581.31
935.03	4513.72
935.20	4399.04
935.36	4427.71
935.53	4388.80
935.70	4472.76
935.86	4315.07
936.03	4292.54
936.20	4280.25
936.36	4188.10
936.53	4222.91
936.70	4190.14
936.86	4212.67
937.03	4237.25
937.20	4046.79
937.36	4022.21
937.53	4020.16
937.70	4048.83
937.86	3977.16
938.03	3987.40
938.20	3930.05
938.36	3837.89
938.53	3923.91
938.70	3872.71
938.86	3796.93
939.03	3690.44
939.20	3743.69
939.36	3708.87
939.53	3776.45
939.70	3708.87
939.86	3653.58
940.03	3463.12
940.19	3502.03
940.36	3483.59
940.53	3432.40
940.69	3418.06
940.86	3518.41
941.03	3334.09
941.19	3434.44
941.36	3356.62
941.52	3387.34
941.69	3356.62
941.86	3266.51
942.02	3293.13
942.19	3301.33
942.35	3379.15
942.52	3074.00
942.69	3250.13
942.85	3207.12
943.02	3149.78
943.18	3131.34
943.35	3094.48
943.52	3088.34
943.68	3104.72
943.85	3162.06
944.01	3000.27
944.18	3014.61
944.35	3094.48
944.51	2865.11
944.68	2959.31
944.84	2863.06
945.01	2924.50
945.17	2944.98
945.34	2904.02
945.51	2912.21
945.67	2967.51
945.84	2967.51
946.00	2920.40
946.17	2836.44
946.33	2791.38
946.50	2920.40
946.67	2926.55
946.83	2832.34
947.00	2822.10
947.16	2844.63
947.33	2750.42
947.49	2879.44
947.66	2807.77
947.82	2852.82
947.99	2766.81
948.16	2832.34
948.32	2820.05
948.49	2865.11
948.65	2811.86
948.82	2830.29
948.98	2834.39
949.15	2842.58
949.31	2785.24
949.48	2756.57
949.64	2826.20
949.81	2740.18
949.97	2764.76
950.14	2805.72
950.30	2820.05
950.47	2887.64
950.63	2813.91
950.80	2701.27
950.96	2865.11
951.13	2711.51
951.30	2750.42
951.46	2789.33
951.63	2777.05
951.79	2766.81
951.96	2820.05
952.12	2797.53
952.29	2758.61
952.45	2764.76
952.62	2693.08
952.78	2787.29
952.94	2727.89
953.11	2785.24
953.27	2658.26
953.44	2813.91
953.60	2795.48
953.77	2822.10
953.93	2768.85
954.10	2809.81
954.26	2754.52
954.43	2697.17
954.59	2799.57
954.76	2760.66
954.92	2625.50
955.09	2688.98
955.25	2750.42
955.42	2643.93
955.58	2705.37
955.75	2701.27
955.91	2682.84
956.07	2725.85
956.24	2611.16
956.40	2697.17
956.57	2783.19
956.73	2846.68
956.90	2715.61
957.06	2568.15
957.23	2605.02
957.39	2613.21
957.56	2656.22
957.72	2654.17
957.88	2598.87
958.05	2746.33
958.21	2607.06
958.38	2639.83
958.54	2576.34
958.71	2652.12
958.87	2611.16
959.03	2631.64
959.20	2605.02
959.36	2584.54
959.53	2605.02
959.69	2625.50
959.85	2586.58
960.02	2605.02
960.18	2621.40
960.35	2592.73
960.51	2684.89
960.68	2523.10
960.84	2654.17
961.00	2504.67
961.17	2592.73
961.33	2574.30
961.50	2607.06
961.66	2656.22
961.82	2566.10
961.99	2543.58
962.15	2645.98
962.31	2705.37
962.48	2545.63
962.64	2600.92
962.81	2572.25
962.97	2629.59
963.13	2627.54
963.30	2592.73
963.46	2586.58
963.62	2525.15
963.79	2594.78
963.95	2551.77
964.12	2594.78
964.28	2623.45
964.44	2480.09
964.61	2658.26
964.77	2529.24
964.93	2627.54
965.10	2514.91
965.26	2553.82
965.42	2516.95
965.59	2559.96
965.75	2514.91
965.92	2549.72
966.08	2516.95
966.24	2502.62
966.41	2478.04
966.57	2486.23
966.73	2609.11
966.90	2492.38
967.06	2385.88
967.22	2424.80
967.39	2533.34
967.55	2551.77
967.71	2402.27
967.88	2521.05
968.04	2453.47
968.20	2404.32
968.37	2422.75
968.53	2418.65
968.69	2455.51
968.85	2519.00
969.02	2475.99
969.18	2510.81
969.34	2459.61
969.51	2422.75
969.67	2396.12
969.83	2455.51
970.00	2537.43
970.16	2387.93
970.32	2465.75
970.48	2545.63
970.65	2412.51
970.81	2467.80
970.97	2383.84
971.14	2334.68
971.30	2486.23
971.46	2363.36
971.63	2418.65
971.79	2428.89
971.95	2418.65
972.11	2369.50
972.28	2394.08
972.44	2465.75
972.60	2363.36
972.76	2416.60
972.93	2344.92
973.09	2369.50
973.25	2379.74
973.42	2289.63
973.58	2467.80
973.74	2430.94
973.90	2441.18
974.07	2342.88
974.23	2449.37
974.39	2475.99
974.55	2432.99
974.72	2338.78
974.88	2291.68
975.04	2344.92
975.20	2351.07
975.37	2330.59
975.53	2269.15
975.69	2330.59
975.85	2365.40
976.01	2340.83
976.18	2269.15
976.34	2297.82
976.50	2326.49
976.66	2308.06
976.83	2332.64
976.99	2316.25
977.15	2283.49
977.31	2236.38
977.47	2326.49
977.64	2312.16
977.80	2342.88
977.96	2283.49
978.12	2301.92
978.29	2369.50
978.45	2265.05
978.61	2308.06
978.77	2328.54
978.93	2236.38
979.10	2279.39
979.26	2267.10
979.42	2306.01
979.58	2254.81
979.74	2265.05
979.91	2185.18
980.07	2215.90
980.23	2217.95
980.39	2406.36
980.55	2355.16
980.71	2232.29
980.88	2185.18
981.04	2299.87
981.20	2224.09
981.36	2271.20
981.52	2164.70
981.68	2232.29
981.85	2289.63
982.01	2322.40
982.17	2222.05
982.33	2164.70
982.49	2260.96
982.65	2242.53
982.82	2250.72
982.98	2254.81
983.14	2031.58
983.30	2271.20
983.46	2271.20
983.62	2246.62
983.79	2244.57
983.95	2209.76
984.11	2103.26
984.27	2174.94
984.43	2205.66
984.59	2123.74
984.75	2240.48
984.91	2256.86
985.08	2242.53
985.24	2199.52
985.40	2142.18
985.56	2199.52
985.72	2133.98
985.88	2209.76
986.04	2117.60
986.20	2140.13
986.37	2082.78
986.53	2115.55
986.69	2176.99
986.85	2156.51
987.01	2133.98
987.17	2166.75
987.33	2168.80
987.49	2187.23
987.65	2217.95
987.82	2170.85
987.98	2195.42
988.14	2168.80
988.30	2228.19
988.46	2142.18
988.62	2125.79
988.78	2220.00
988.94	2144.22
989.10	2113.50
989.26	2056.16
989.42	2138.08
989.59	2086.88
989.75	2043.87
989.91	2084.83
990.07	2140.13
990.23	2019.30
990.39	2041.82
990.55	2056.16
990.71	2090.98
990.87	2068.45
991.03	1988.58
991.19	2015.20
991.35	2146.27
991.51	2115.55
991.67	2140.13
991.83	2164.70
992.00	2144.22
992.16	2095.07
992.32	2050.02
992.48	2113.50
992.64	2031.58
992.80	2062.30
992.96	2150.37
993.12	2062.30
993.28	2129.89
993.44	2084.83
993.60	2039.78
993.76	2121.70
993.92	2136.03
994.08	2084.83
994.24	2095.07
994.40	2054.11
994.56	2011.11
994.72	2029.54
994.88	2047.97
995.04	2136.03
995.20	1992.67
995.36	2017.25
995.52	2047.97
995.68	2011.11
995.84	2037.73
996.00	2154.46
996.16	1992.67
996.32	1947.62
996.48	2000.87
996.64	2121.70
996.80	2033.63
996.96	2035.68
997.12	2056.16
997.28	1990.63
997.44	2039.78
997.60	2060.26
997.76	2004.96
997.92	1976.29
998.08	2068.45
998.24	2009.06
998.40	2052.06
998.56	1943.52
998.72	1941.47
998.88	1953.76
999.04	1984.48
999.20	2000.87
999.36	2009.06
999.52	1984.48
999.68	1992.67
999.84	1974.24
1000.00	2041.82
1000.16	1959.91
1000.32	1947.62
1000.48	2086.88
1000.64	1959.91
1000.80	2007.01
1000.95	1939.43
1001.11	1984.48
1001.27	1941.47
1001.43	1951.71
1001.59	2031.58
1001.75	1943.52
1001.91	1918.95
1002.07	1925.09
1002.23	1923.04
1002.39	1957.86
1002.55	1935.33
1002.71	1925.09
1002.87	1972.19
1003.03	1912.80
1003.19	1945.57
1003.34	1961.95
1003.50	1941.47
1003.66	1925.09
1003.82	1935.33
1003.98	1955.81
1004.14	1916.90
1004.30	1859.56
1004.46	1937.38
1004.62	1910.75
1004.78	1966.05
1004.94	1888.23
1005.09	1902.56
1005.25	1984.48
1005.41	1923.04
1005.57	2009.06
1005.73	1902.56
1005.89	1918.95
1006.05	1939.43
1006.21	1912.80
1006.37	1882.08
1006.52	1867.75
1006.68	1867.75
1006.84	1914.85
1007.00	1957.86
1007.16	1837.03
1007.32	1847.27
1007.48	1900.52
1007.64	1951.71
1007.79	1871.84
1007.95	1902.56
1008.11	1900.52
1008.27	1783.78
1008.43	1859.56
1008.59	1947.62
1008.75	1931.23
1008.91	1789.92
1009.06	1884.13
1009.22	1976.29
1009.38	1843.17
1009.54	1853.41
1009.70	1898.47
1009.86	1873.89
1010.01	1857.51
1010.17	1859.56
1010.33	1916.90
1010.49	1804.26
1010.65	1818.60
1010.81	1810.40
1010.96	1859.56
1011.12	1828.84
1011.28	1806.31
1011.44	1929.19
1011.60	1865.70
1011.76	1902.56
1011.91	1908.71
1012.07	1767.40
1012.23	1742.82
1012.39	1818.60
1012.55	1849.32
1012.71	1796.07
1012.86	1882.08
1013.02	1824.74
1013.18	1773.54
1013.34	1847.27
1013.50	1880.04
1013.65	1851.36
1013.81	1769.44
1013.97	1886.18
1014.13	1753.06
1014.29	1855.46
1014.44	1759.21
1014.60	1859.56
1014.76	1767.40
1014.92	1832.93
1015.07	1808.36
1015.23	1787.88
1015.39	1796.07
1015.55	1763.30
1015.71	1822.69
1015.86	1787.88
1016.02	1783.78
1016.18	1781.73
1016.34	1783.78
1016.49	1789.92
1016.65	1808.36
1016.81	1834.98
1016.97	1822.69
1017.12	1757.16
1017.28	1783.78
1017.44	1767.40
1017.60	1796.07
1017.75	1771.49
1017.91	1742.82
1018.07	1832.93
1018.23	1748.97
1018.38	1748.97
1018.54	1757.16
1018.70	1791.97
1018.86	1736.68
1019.01	1775.59
1019.17	1828.84
1019.33	1794.02
1019.49	1767.40
1019.64	1718.25
1019.80	1812.45
1019.96	1808.36
1020.12	1722.34
1020.27	1767.40
1020.43	1761.25
1020.59	1714.15
1020.74	1779.68
1020.90	1808.36
1021.06	1781.73
1021.22	1765.35
1021.37	1773.54
1021.53	1718.25
1021.69	1787.88
1021.84	1769.44
1022.00	1734.63
1022.16	1660.90
1022.31	1777.64
1022.47	1716.20
1022.63	1699.81
1022.79	1695.72
1022.94	1681.38
1023.10	1748.97
1023.26	1716.20
1023.41	1689.57
1023.57	1660.90
1023.73	1783.78
1023.88	1724.39
1024.04	1697.77
1024.20	1679.33
1024.35	1816.55
1024.51	1761.25
1024.67	1693.67
1024.82	1783.78
1024.98	1683.43
1025.14	1638.38
1025.29	1779.68
1025.45	1734.63
1025.61	1632.23
1025.76	1787.88
1025.92	1730.53
1026.08	1697.77
1026.23	1714.15
1026.39	1746.92
1026.55	1693.67
1026.70	1624.04
1026.86	1685.48
1027.02	1714.15
1027.17	1669.09
1027.33	1660.90
1027.48	1720.29
1027.64	1685.48
1027.80	1630.18
1027.95	1679.33
1028.11	1677.29
1028.27	1753.06
1028.42	1732.58
1028.58	1687.53
1028.73	1693.67
1028.89	1644.52
1029.05	1687.53
1029.20	1746.92
>>>>>End Processed Spectral Data<<<<<
