SpectraSuite Data File
++++++++++++++++++++++++++++++++++++
Date: Tue Jun 13 11:53:15 CEST 2017
User: INFO_000
Dark Spectrum Present: No
Reference Spectrum Present: No
Number of Sampled Component Spectra: 1
Spectrometers: USB4H00879
Integration Time (usec): 30000 (USB4H00879)
Spectra Averaged: 1 (USB4H00879)
Boxcar Smoothing: 0 (USB4H00879)
Correct for Electrical Dark: No (USB4H00879)
Strobe/Lamp Enabled: No (USB4H00879)
Correct for Detector Non-linearity: No (USB4H00879)
Correct for Stray Light: No (USB4H00879)
Number of Pixels in Processed Spectrum: 3648
>>>>>Begin Processed Spectral Data<<<<<
345.13	1425.39
345.34	1425.39
345.56	1425.39
345.78	1263.60
345.99	1384.43
346.21	1546.22
346.42	1546.22
346.64	1554.41
346.86	1587.18
347.07	1544.17
347.29	1509.35
347.50	1419.24
347.72	1523.69
347.94	1499.11
348.15	1503.21
348.37	1472.49
348.59	1589.22
348.80	1488.87
349.02	1595.37
349.23	1687.53
349.45	1585.13
349.67	1591.27
349.88	1552.36
350.10	1710.05
350.31	1654.76
350.53	1599.46
350.75	1697.77
350.96	1533.93
351.18	1640.42
351.39	1509.35
351.61	1550.31
351.82	1662.95
352.04	1617.90
352.26	1585.13
352.47	1556.46
352.69	1671.14
352.90	1624.04
353.12	1595.37
353.34	1546.22
353.55	1691.62
353.77	1601.51
353.98	1585.13
354.20	1572.84
354.41	1667.05
354.63	1562.60
354.85	1681.38
355.06	1613.80
355.28	1607.66
355.49	1681.38
355.71	1599.46
355.92	1685.48
356.14	1593.32
356.35	1613.80
356.57	1558.50
356.79	1691.62
357.00	1607.66
357.22	1693.67
357.43	1574.89
357.65	1691.62
357.86	1558.50
358.08	1732.58
358.29	1628.14
358.51	1728.49
358.72	1638.38
358.94	1656.81
359.16	1710.05
359.37	1691.62
359.59	1658.85
359.80	1734.63
360.02	1710.05
360.23	1652.71
360.45	1689.57
360.66	1624.04
360.88	1636.33
361.09	1652.71
361.31	1728.49
361.52	1665.00
361.74	1726.44
361.95	1757.16
362.17	1703.91
362.38	1804.26
362.60	1753.06
362.81	1724.39
363.03	1650.66
363.24	1771.49
363.46	1679.33
363.67	1769.44
363.89	1710.05
364.10	1681.38
364.32	1615.85
364.53	1751.01
364.75	1658.85
364.96	1755.11
365.18	1740.77
365.39	1640.42
365.61	1720.29
365.82	1824.74
366.04	1744.87
366.25	1687.53
366.47	1798.12
366.68	1701.86
366.90	1683.43
367.11	1742.82
367.33	1779.68
367.54	1759.21
367.76	1718.25
367.97	1734.63
368.19	1789.92
368.40	1791.97
368.62	1759.21
368.83	1736.68
369.05	1787.88
369.26	1765.35
369.48	1742.82
369.69	1751.01
369.91	1765.35
370.12	1746.92
370.33	1822.69
370.55	1687.53
370.76	1802.21
370.98	1744.87
371.19	1806.31
371.41	1832.93
371.62	1771.49
371.84	1724.39
372.05	1877.99
372.27	1810.40
372.48	1773.54
372.69	1875.94
372.91	1814.50
373.12	1855.46
373.34	1841.12
373.55	1857.51
373.77	1847.27
373.98	1783.78
374.20	1849.32
374.41	1968.10
374.62	1861.60
374.84	1890.28
375.05	1890.28
375.27	1902.56
375.48	1882.08
375.70	1918.95
375.91	1933.28
376.12	1951.71
376.34	1843.17
376.55	1949.67
376.77	1959.91
376.98	1828.84
377.19	1935.33
377.41	1849.32
377.62	1910.75
377.84	1949.67
378.05	2025.44
378.27	1957.86
378.48	2011.11
378.69	1980.39
378.91	1943.52
379.12	1949.67
379.34	1947.62
379.55	1959.91
379.76	1990.63
379.98	1929.19
380.19	1918.95
380.41	1984.48
380.62	1986.53
380.83	1986.53
381.05	2004.96
381.26	2000.87
381.47	1972.19
381.69	1970.15
381.90	2099.17
382.12	1927.14
382.33	1982.43
382.54	1988.58
382.76	2033.63
382.97	2050.02
383.19	2052.06
383.40	2056.16
383.61	1994.72
383.83	2029.54
384.04	2013.15
384.25	2076.64
384.47	2058.21
384.68	2033.63
384.89	2025.44
385.11	2035.68
385.32	2115.55
385.54	2052.06
385.75	2123.74
385.96	2111.46
386.18	2095.07
386.39	2121.70
386.60	2066.40
386.82	2113.50
387.03	2125.79
387.24	2185.18
387.46	2168.80
387.67	2205.66
387.88	2217.95
388.10	2191.33
388.31	2254.81
388.52	2213.85
388.74	2205.66
388.95	2166.75
389.16	2195.42
389.38	2254.81
389.59	2215.90
389.80	2289.63
390.02	2203.61
390.23	2232.29
390.44	2306.01
390.66	2203.61
390.87	2312.16
391.08	2312.16
391.30	2367.45
391.51	2355.16
391.72	2273.25
391.94	2265.05
392.15	2314.20
392.36	2342.88
392.58	2328.54
392.79	2353.12
393.00	2346.97
393.22	2349.02
393.43	2432.99
393.64	2426.84
393.85	2367.45
394.07	2400.22
394.28	2400.22
394.49	2500.57
394.71	2459.61
394.92	2545.63
395.13	2330.59
395.35	2473.95
395.56	2410.46
395.77	2451.42
395.98	2525.15
396.20	2453.47
396.41	2516.95
396.62	2516.95
396.84	2467.80
397.05	2500.57
397.26	2484.19
397.47	2521.05
397.69	2564.06
397.90	2506.71
398.11	2547.67
398.32	2535.39
398.54	2527.19
398.75	2645.98
398.96	2611.16
399.18	2572.25
399.39	2664.41
399.60	2713.56
399.81	2594.78
400.03	2592.73
400.24	2686.94
400.45	2648.02
400.66	2738.13
400.88	2605.02
401.09	2820.05
401.30	2756.57
401.51	2742.23
401.73	2734.04
401.94	2832.34
402.15	2795.48
402.36	2770.90
402.58	2832.34
402.79	2805.72
403.00	2822.10
403.21	2885.59
403.43	2744.28
403.64	2889.68
403.85	2828.24
404.06	2920.40
404.27	2766.81
404.49	2828.24
404.70	2772.95
404.91	2891.73
405.12	2957.27
405.34	2953.17
405.55	2854.87
405.76	2824.15
405.97	2873.30
406.19	3059.67
406.40	2936.79
406.61	3039.19
406.82	3022.80
407.03	3098.58
407.25	2930.64
407.46	3047.38
407.67	2942.93
407.88	3041.23
408.09	2971.60
408.31	3006.42
408.52	3035.09
408.73	3098.58
408.94	2983.89
409.15	3008.47
409.37	3059.67
409.58	3178.45
409.79	2981.84
410.00	3129.30
410.21	3180.50
410.43	3018.71
410.64	3059.67
410.85	3176.40
411.06	3125.20
411.27	3221.45
411.48	3268.56
411.70	3137.49
411.91	3078.10
412.12	3207.12
412.33	3114.96
412.54	3227.60
412.76	3309.52
412.97	3319.76
413.18	3045.33
413.39	3303.37
413.60	3313.61
413.81	3268.56
414.03	3366.86
414.24	3258.32
414.45	3348.43
414.66	3239.89
414.87	3370.96
415.08	3430.35
415.30	3413.96
415.51	3334.09
415.72	3295.18
415.93	3327.95
416.14	3330.00
416.35	3305.42
416.56	3461.07
416.78	3452.88
416.99	3444.68
417.20	3489.74
417.41	3530.70
417.62	3575.75
417.83	3598.28
418.04	3461.07
418.26	3547.08
418.47	3477.45
418.68	3612.62
418.89	3598.28
419.10	3483.59
419.31	3682.25
419.52	3612.62
419.73	3526.60
419.95	3622.86
420.16	3573.71
420.37	3749.83
420.58	3612.62
420.79	3606.47
421.00	3706.82
421.21	3729.35
421.42	3772.36
421.63	3692.49
421.85	3803.08
422.06	3852.23
422.27	3770.31
422.48	3708.87
422.69	3807.17
422.90	3821.51
423.11	3848.13
423.32	3856.33
423.53	4016.07
423.75	3977.16
423.96	3944.39
424.17	4003.78
424.38	4038.59
424.59	4057.03
424.80	4153.28
425.01	3987.40
425.22	3997.64
425.43	4048.83
425.64	4186.05
425.85	4196.29
426.06	4143.04
426.28	4102.08
426.49	4034.50
426.70	4169.66
426.91	4224.96
427.12	4267.97
427.33	4306.88
427.54	4198.34
427.75	4212.67
427.96	4224.96
428.17	4270.01
428.38	4480.96
428.59	4366.27
428.80	4317.12
429.01	4319.17
429.23	4433.85
429.44	4437.95
429.65	4444.09
429.86	4542.39
430.07	4483.00
430.28	4474.81
430.49	4562.87
430.70	4673.46
430.91	4669.37
431.12	4646.84
431.33	4661.18
431.54	4695.99
431.75	4648.89
431.96	4716.47
432.17	4687.80
432.38	4556.73
432.59	4732.86
432.80	4687.80
433.01	4917.17
433.22	4874.17
433.43	4825.01
433.64	4757.43
433.85	4726.71
434.06	4970.42
434.27	4835.25
434.49	5007.28
434.70	4995.00
434.91	4988.85
435.12	5095.35
435.33	4970.42
435.54	5048.24
435.75	4970.42
435.96	5216.18
436.17	4954.04
436.38	5275.57
436.59	5089.20
436.80	5132.21
437.01	5187.50
437.22	5267.38
437.43	5054.39
437.64	5021.62
437.85	5238.70
438.06	5265.33
438.27	5197.74
438.48	5244.85
438.69	5304.24
438.90	5216.18
439.11	5294.00
439.32	5420.97
439.53	5382.06
439.74	5369.77
439.95	5537.71
440.16	5486.51
440.37	5472.17
440.57	5398.45
440.78	5308.34
440.99	5468.08
441.20	5631.91
441.41	5511.08
441.62	5486.51
441.83	5420.97
442.04	5607.34
442.25	5609.39
442.46	5588.91
442.67	5805.99
442.88	6123.43
443.09	5646.25
443.30	5726.12
443.51	5771.18
443.72	5904.29
443.93	5642.15
444.14	6016.93
444.35	5726.12
444.56	5892.01
444.77	5980.07
444.98	5918.63
445.19	5906.34
445.40	5889.96
445.61	5943.21
445.81	5937.06
446.02	5941.16
446.23	6031.27
446.44	5824.42
446.65	5994.40
446.86	6082.47
447.07	6008.74
447.28	6360.99
447.49	6086.56
447.70	6096.80
447.91	6160.29
448.12	6068.13
448.33	6170.53
448.54	6418.33
448.74	6084.52
448.95	6297.50
449.16	6231.97
449.37	6449.05
449.58	6201.25
449.79	6526.88
450.00	6254.50
450.21	6299.55
450.42	6512.54
450.63	6514.59
450.84	6500.25
451.05	6473.63
451.25	6569.88
451.46	6428.57
451.67	6459.29
451.88	6758.30
452.09	6598.56
452.30	6502.30
452.51	6666.14
452.72	6647.71
452.93	7024.53
453.13	6836.12
453.34	6727.58
453.55	6836.12
453.76	6756.25
453.97	7157.65
454.18	6989.72
454.39	6891.41
454.60	6840.22
454.81	6954.90
455.01	7202.71
455.22	6807.45
455.43	7051.16
455.64	7153.55
455.85	7331.73
456.06	7456.65
456.27	7221.14
456.48	7182.23
456.68	7278.48
456.89	7229.33
457.10	7505.81
457.31	7444.37
457.52	7360.40
457.73	7409.55
457.94	7579.53
458.14	7423.89
458.35	7706.51
458.56	7620.49
458.77	7612.30
458.98	7821.19
459.19	7761.80
459.39	7817.10
459.60	7845.77
459.81	7919.50
460.02	7958.41
460.23	7909.26
460.44	7968.65
460.65	8021.89
460.85	8220.55
461.06	8126.34
461.27	7810.95
461.48	8308.61
461.69	8253.31
461.89	8050.57
462.10	8279.94
462.31	8169.35
462.52	8152.96
462.73	8290.18
462.94	8490.88
463.14	8443.78
463.35	8404.86
463.56	8730.49
463.77	8544.13
463.98	8523.65
464.18	8564.61
464.39	8845.18
464.60	8937.34
464.81	9023.35
465.02	8914.81
465.23	9265.01
465.43	8818.55
465.64	9095.03
465.85	8982.39
466.06	8865.66
466.27	9297.78
466.47	9213.81
466.68	9228.15
466.89	9205.62
467.10	9498.48
467.30	9283.44
467.51	9432.94
467.72	9684.84
467.93	9543.53
468.14	9582.45
468.34	9478.00
468.55	9858.92
468.76	9885.55
468.97	9760.62
469.17	9893.74
469.38	9928.55
469.59	10157.92
469.80	10018.66
470.01	9936.74
470.21	10170.21
470.42	10362.72
470.63	10391.39
470.84	10245.99
471.04	10299.23
471.25	10407.78
471.46	10356.58
471.67	10649.44
471.87	10702.68
472.08	10719.07
472.29	10852.19
472.50	10581.85
472.70	10704.73
472.91	10948.44
473.12	11089.75
473.33	11130.71
473.53	10970.97
473.74	11034.46
473.95	11519.82
474.16	11583.31
474.36	11433.81
474.57	11458.39
474.78	11687.76
474.99	11622.22
475.19	11657.04
475.40	11882.31
475.61	11800.40
475.81	12083.02
476.02	12222.28
476.23	12150.60
476.44	12138.31
476.64	12212.04
476.85	12498.75
477.06	12535.62
477.27	12719.93
477.47	12721.98
477.68	12918.59
477.89	12758.85
478.09	12824.38
478.30	12918.59
478.51	12930.87
478.71	13297.46
478.92	13080.38
479.13	13268.79
479.34	13279.03
479.54	13262.65
479.75	13512.50
479.96	13365.04
480.16	13686.58
480.37	13688.62
480.58	13676.34
480.78	14130.98
480.99	14108.46
481.20	14024.49
481.41	14407.46
481.61	14137.13
481.82	14200.62
482.03	14309.16
482.23	14399.27
482.44	14585.63
482.65	14667.55
482.85	14847.77
483.06	14661.41
483.27	14698.27
483.47	15042.33
483.68	15005.47
483.89	15230.74
484.09	14987.04
484.30	15281.94
484.51	15179.54
484.71	15327.00
484.92	15501.08
485.13	15318.81
485.33	15503.12
485.54	15615.76
485.75	15593.23
485.95	15718.16
486.16	16064.27
486.37	16066.31
486.57	15986.44
486.78	16326.41
486.98	16406.28
487.19	16516.87
487.40	16504.58
487.60	16383.75
487.81	16613.12
488.02	16813.82
488.22	16676.61
488.43	16727.81
488.64	16842.50
488.84	16854.78
489.05	17127.16
489.25	17286.90
489.46	17383.16
489.67	17385.21
489.87	17108.73
490.08	17389.30
490.29	17415.93
490.49	17735.41
490.70	17495.80
490.90	17805.04
491.11	17805.04
491.32	17913.58
491.52	17884.91
491.73	18327.27
491.94	18302.70
492.14	18290.41
492.35	18435.81
492.55	18366.18
492.76	18386.66
492.97	18589.41
493.17	18659.04
493.38	18536.17
493.58	18753.25
493.79	18792.16
494.00	18636.52
494.20	18777.83
494.41	18775.78
494.61	19091.16
494.82	19107.55
495.02	18976.48
495.23	19121.88
495.44	19095.26
495.64	19566.29
495.85	19353.30
496.05	19525.33
496.26	19543.77
496.47	20098.77
496.67	19605.20
496.88	20016.85
497.08	19881.68
497.29	20041.42
497.49	19601.11
497.70	20096.72
497.91	20076.24
498.11	20311.75
498.32	20307.66
498.52	20381.38
498.73	20678.34
498.93	20444.87
499.14	20510.41
499.34	20475.59
499.55	20737.73
499.76	20631.24
499.96	20567.75
500.17	20960.96
500.37	21036.74
500.58	20868.80
500.78	21210.81
500.99	21073.60
501.19	21462.71
501.40	21157.57
501.60	21370.55
501.81	21327.55
502.02	21350.07
502.22	21421.75
502.43	21522.10
502.63	21585.59
502.84	21446.33
503.04	21636.79
503.25	21860.02
503.45	21886.64
503.66	21589.69
503.86	21679.80
504.07	22406.83
504.27	21946.03
504.48	22271.66
504.68	22150.83
504.89	22412.97
505.09	22298.28
505.30	22286.00
505.50	22261.42
505.71	22705.83
505.91	22468.27
506.12	22507.18
506.32	22361.77
506.53	22353.58
506.73	22722.21
506.94	22812.32
507.14	22773.41
507.35	22718.12
507.55	22832.80
507.76	23086.75
507.96	23101.09
508.17	23240.35
508.37	22974.11
508.58	22935.20
508.78	23246.49
508.99	23232.16
509.19	23162.53
509.40	23250.59
509.60	23010.98
509.81	23527.06
510.01	23463.58
510.22	23416.47
510.42	23373.47
510.63	23574.17
510.83	23602.84
511.04	23572.12
511.24	23518.87
511.44	23678.61
511.65	23750.29
511.85	23725.72
512.06	23869.08
512.26	23682.71
512.47	23834.26
512.67	23725.72
512.88	23817.88
513.08	23625.37
513.29	24045.20
513.49	24024.72
513.69	24075.92
513.90	24028.82
514.10	23969.43
514.31	23967.38
514.51	24293.01
514.72	24114.83
514.92	24104.59
515.13	24411.79
515.33	24385.16
515.53	24417.93
515.74	24606.34
515.94	24665.74
516.15	24489.61
516.35	24319.63
516.56	24815.24
516.76	24735.37
516.96	24542.86
517.17	25212.54
517.37	24833.67
517.58	24815.24
517.78	25040.51
517.99	25151.10
518.19	25235.07
518.39	25042.56
518.60	25024.13
518.80	24821.38
519.01	25122.43
519.21	25343.61
519.41	25312.89
519.62	25149.06
519.82	25388.67
520.03	25634.42
520.23	25443.96
520.43	25161.34
520.64	26123.89
520.84	25810.55
521.05	25380.48
521.25	25982.58
521.45	25751.16
521.66	26150.51
521.86	25802.36
522.07	26074.74
522.27	25841.27
522.47	25874.04
522.68	26230.38
522.88	25808.50
523.08	26353.26
523.29	26388.08
523.49	26369.65
523.70	26404.46
523.90	26656.36
524.10	26408.56
524.31	26644.07
524.51	26386.03
524.71	26617.45
524.92	26744.42
525.12	26832.49
525.33	26547.82
525.53	26996.32
525.73	27018.85
525.94	26938.98
526.14	26781.29
526.34	27088.48
526.55	26855.01
526.75	27115.11
526.95	27170.40
527.16	27207.26
527.36	27287.14
527.56	27278.94
527.77	27532.89
527.97	27600.47
528.17	27412.06
528.38	27371.10
528.58	27702.87
528.78	27856.47
528.99	27864.66
529.19	27881.05
529.39	27694.68
529.60	28077.65
529.80	27659.87
530.00	28130.90
530.21	28333.65
530.41	28372.56
530.61	28468.81
530.82	28638.80
531.02	28280.40
531.22	28659.27
531.43	28624.46
531.63	28767.82
531.83	28833.35
532.04	28900.94
532.24	28716.62
532.44	28909.13
532.64	28819.02
532.85	29482.56
533.05	28739.15
533.25	28991.05
533.46	29005.38
533.66	29486.65
533.86	28993.09
534.07	29431.36
534.27	29380.16
534.47	29640.25
534.67	29578.81
534.88	29384.26
535.08	29492.80
535.28	29558.33
535.49	29697.59
535.69	29929.02
535.89	30228.02
536.09	29855.29
536.30	30627.37
536.50	30144.05
536.70	30436.91
536.91	30359.09
537.11	30252.59
537.31	30389.81
537.51	30471.73
537.72	30547.50
537.92	30717.48
538.12	30678.57
538.32	30748.20
538.53	30524.97
538.73	30842.41
538.93	31045.16
539.13	30891.56
539.34	30598.70
539.54	30807.59
539.74	31172.13
539.94	30864.94
540.15	30727.72
540.35	31409.70
540.55	31039.01
540.75	31004.20
540.96	31350.31
541.16	31200.80
541.36	31098.41
541.56	31340.07
541.77	31598.11
541.97	31481.38
542.17	31804.95
542.37	31927.83
542.58	31686.17
542.78	31690.27
542.98	31886.87
543.18	32103.96
543.38	32120.34
543.59	31802.91
543.79	31931.93
543.99	31976.98
544.19	32355.86
544.40	31862.30
544.60	32056.85
544.80	31852.06
545.00	32208.40
545.20	32517.65
545.41	32364.05
545.61	32224.79
545.81	32235.03
546.01	32261.65
546.21	32110.10
546.42	32355.86
546.62	32396.82
546.82	32566.80
547.02	32638.48
547.22	32873.99
547.43	32241.17
547.63	32931.34
547.83	32638.48
548.03	32282.13
548.23	32689.68
548.44	32607.76
548.64	32796.17
548.84	32771.60
549.04	32900.62
549.24	32556.56
549.45	33070.60
549.65	32800.27
549.85	32953.87
550.05	32812.56
550.25	32632.33
550.45	33209.86
550.66	33152.52
550.86	33064.46
551.06	32953.87
551.26	33119.75
551.46	33383.94
551.66	33089.03
551.87	33127.94
552.07	32884.23
552.27	33254.92
552.47	33113.61
552.67	33154.57
552.87	33422.85
553.07	33400.32
553.28	33195.53
553.48	33347.08
553.68	33121.80
553.88	33283.59
554.08	33842.68
554.28	33760.76
554.48	33588.74
554.69	33891.83
554.89	33465.86
555.09	33728.00
555.29	33644.03
555.49	33500.67
555.69	33431.04
555.89	33639.93
556.10	33623.55
556.30	33308.16
556.50	33502.72
556.70	33644.03
556.90	33678.85
557.10	33902.07
557.30	33355.27
557.50	33881.60
557.70	34031.10
557.91	34067.96
558.11	33750.52
558.31	33824.25
558.51	33758.72
558.71	33863.16
558.91	33771.00
559.11	33824.25
559.31	34160.12
559.51	33670.65
559.72	33543.68
559.92	33844.73
560.12	33957.37
560.32	33918.46
560.52	33576.45
560.72	33922.55
560.92	34129.40
561.12	34070.01
561.32	34192.89
561.52	34092.54
561.72	34104.82
561.93	33783.29
562.13	34133.50
562.33	34041.34
562.53	34604.53
562.73	34223.61
562.93	34393.59
563.13	34248.18
563.33	34278.90
563.53	34207.22
563.73	34000.38
563.93	34369.01
564.13	34721.26
564.33	34319.86
564.53	34053.62
564.74	34823.66
564.94	34467.31
565.14	34174.45
565.34	34315.76
565.54	34276.85
565.74	34430.45
565.94	34149.88
566.14	34088.44
566.34	34059.77
566.54	34809.32
566.74	33895.93
566.94	34606.58
567.14	34606.58
567.34	34385.40
567.54	34645.49
567.74	34278.90
567.94	34293.24
568.14	34545.14
568.34	34885.10
568.54	34526.71
568.74	34809.32
568.94	34848.24
569.14	34616.82
569.34	34473.46
569.54	34735.60
569.75	34211.32
569.95	34694.64
570.15	34391.54
570.35	34715.12
570.55	34629.10
570.75	34958.83
570.95	34584.05
571.15	34602.48
571.35	34977.26
571.55	34692.59
571.75	34649.58
571.95	34997.74
572.15	34811.37
572.35	34962.92
572.55	34723.31
572.75	34903.53
572.95	34461.17
573.15	34481.65
573.35	34885.10
573.55	34452.98
573.75	34973.16
573.95	34807.28
574.15	34946.54
574.35	35050.99
574.55	35339.75
574.75	34608.62
574.95	34854.38
575.15	34983.40
575.34	35038.70
575.54	34887.15
575.74	34858.48
575.94	34835.95
576.14	34989.55
576.34	35059.18
576.54	35356.13
576.74	34985.45
576.94	34838.00
577.14	34987.50
577.34	35493.35
577.54	34964.97
577.74	35259.88
577.94	35356.13
578.14	35108.33
578.34	35362.28
578.54	35137.00
578.74	35016.17
578.94	35479.01
579.14	35032.55
579.34	35253.73
579.54	35399.14
579.74	35630.56
579.94	35573.22
580.13	35415.52
580.33	35309.03
580.53	35524.07
580.73	35732.96
580.93	35669.47
581.13	35706.34
581.33	35663.33
581.53	35796.45
581.73	35788.25
581.93	35892.70
582.13	35694.05
582.33	35890.65
582.53	35904.99
582.73	35757.53
582.92	35550.69
583.12	35849.69
583.32	35665.38
583.52	35661.28
583.72	35988.95
583.92	35761.63
584.12	35864.03
584.32	36140.50
584.52	36025.82
584.72	36029.91
584.92	36220.38
585.11	36427.22
585.31	36009.43
585.51	35769.82
585.71	36230.62
585.91	36341.21
586.11	35851.74
586.31	35771.87
586.51	35976.67
586.71	36027.87
586.91	35886.56
587.10	36154.84
587.30	36388.31
587.50	36359.64
587.70	36064.73
587.90	36615.63
588.10	36400.60
588.30	36525.52
588.50	36621.78
588.69	36283.86
588.89	36257.24
589.09	36507.09
589.29	36431.32
589.49	37033.42
589.69	36218.33
589.89	36316.63
590.08	36275.67
590.28	36785.61
590.48	36435.41
590.68	36335.06
590.88	36439.51
591.08	36531.67
591.28	35978.72
591.47	36619.73
591.67	36695.50
591.87	36525.52
592.07	36228.57
592.27	36703.70
592.47	36617.68
592.67	36834.77
592.86	36255.19
593.06	36267.48
593.26	36607.44
593.46	36603.35
593.66	36754.90
593.86	36670.93
594.05	36576.72
594.25	37146.06
594.45	36625.87
594.65	36582.87
594.85	36474.32
595.05	36736.46
595.24	37080.52
595.44	36709.84
595.64	36533.71
595.84	36709.84
596.04	36754.90
596.23	37115.34
596.43	36998.60
596.63	37166.54
596.83	36920.78
597.03	36920.78
597.22	37238.22
597.42	36769.23
597.62	36853.20
597.82	36894.16
598.02	37172.68
598.21	37369.29
598.41	37049.80
598.61	36853.20
598.81	37176.78
599.01	37230.02
599.20	37395.91
599.40	37078.47
599.60	37002.70
599.80	36959.69
600.00	37293.51
600.19	37430.72
600.39	37330.37
600.59	37737.92
600.79	37344.71
600.98	37504.45
601.18	37594.56
601.38	37328.33
601.58	37541.32
601.78	37473.73
601.97	37541.32
602.17	37647.81
602.37	37543.36
602.57	37537.22
602.76	37848.51
602.96	37160.39
603.16	37858.75
603.36	37391.81
603.55	37768.64
603.75	37533.12
603.95	37899.71
604.15	37723.58
604.34	37545.41
604.54	37389.77
604.74	37838.27
604.94	37391.81
605.13	37914.05
605.33	37696.96
605.53	37268.94
605.73	38028.73
605.92	37649.86
606.12	37889.47
606.32	37602.75
606.52	37778.88
606.71	37512.64
606.91	37705.15
607.11	37770.69
607.30	38196.67
607.50	37985.72
607.70	38004.16
607.90	37658.05
608.09	37893.57
608.29	37633.47
608.49	37979.58
608.68	37823.93
608.88	37940.67
609.08	38131.13
609.28	37817.79
609.47	37946.81
609.67	38016.44
609.87	37828.03
610.06	38297.02
610.26	38016.44
610.46	37807.55
610.66	37866.94
610.85	38153.66
611.05	37901.76
611.25	37952.96
611.44	37889.47
611.64	37819.84
611.84	37651.91
612.03	37584.32
612.23	38081.98
612.43	37907.90
612.62	37674.43
612.82	38280.63
613.02	38106.55
613.21	37985.72
613.41	37592.51
613.61	37776.83
613.80	37701.06
614.00	38016.44
614.20	38043.07
614.39	37858.75
614.59	37678.53
614.79	37612.99
614.98	37785.02
615.18	37627.33
615.38	37998.01
615.57	37365.19
615.77	37688.77
615.97	37938.62
616.16	38104.51
616.36	37516.74
616.56	38176.19
616.75	37801.41
616.95	37379.53
617.15	37463.49
617.34	37940.67
617.54	37635.52
617.74	37662.15
617.93	37977.53
618.13	37402.05
618.32	37750.21
618.52	37543.36
618.72	37754.30
618.91	37879.23
619.11	37275.08
619.31	37549.51
619.50	37193.16
619.70	37610.95
619.90	37391.81
620.09	37463.49
620.29	37639.62
620.48	37656.00
620.68	37402.05
620.88	37262.79
621.07	37543.36
621.27	37238.22
621.46	37242.31
621.66	37121.48
621.86	37008.84
622.05	37154.25
622.25	37340.61
622.44	37103.05
622.64	37082.57
622.84	37703.10
623.03	37322.18
623.23	37449.16
623.42	37113.29
623.62	37078.47
623.82	37168.58
624.01	37051.85
624.21	36931.02
624.40	36922.83
624.60	36926.92
624.80	36718.03
624.99	36894.16
625.19	37033.42
625.38	36896.20
625.58	37012.94
625.77	37066.19
625.97	37320.13
626.17	36781.52
626.36	36754.90
626.56	36806.09
626.75	36816.33
626.95	36783.57
627.14	36640.21
627.34	36881.87
627.54	36763.09
627.73	37039.56
627.93	36529.62
628.12	36726.22
628.32	36849.10
628.51	36945.36
628.71	36879.82
628.90	36720.08
629.10	36754.90
629.30	36722.13
629.49	36888.01
629.69	36828.62
629.88	36615.63
630.08	36756.94
630.27	37141.96
630.47	36613.59
630.66	36541.91
630.86	36703.70
631.05	36683.22
631.25	36804.05
631.44	36634.06
631.64	36578.77
631.84	36474.32
632.03	36568.53
632.23	36773.33
632.42	36963.79
632.62	36007.39
632.81	36382.16
633.01	36847.05
633.20	36410.84
633.40	36978.12
633.59	36433.36
633.79	36134.36
633.98	36283.86
634.18	36462.04
634.37	36337.11
634.57	36500.95
634.76	36535.76
634.96	36451.80
635.15	36236.76
635.35	36285.91
635.54	36216.28
635.74	36535.76
635.93	36220.38
636.13	36566.48
636.32	36492.76
636.52	36173.27
636.71	36218.33
636.91	36431.32
637.10	36509.14
637.30	36300.25
637.49	36019.67
637.69	36144.60
637.88	36261.33
638.08	36210.14
638.27	36400.60
638.46	36392.40
638.66	35925.47
638.85	36079.07
639.05	36058.59
639.24	36595.15
639.44	36134.36
639.63	36257.24
639.83	36298.20
640.02	35880.41
640.22	36083.16
640.41	36546.00
640.61	35687.90
640.80	35868.12
640.99	36169.18
641.19	36345.30
641.38	36380.12
641.58	36306.39
641.77	36500.95
641.97	36214.23
642.16	36019.67
642.36	36367.83
642.55	36281.81
642.74	35796.45
642.94	36210.14
643.13	36259.29
643.33	36150.74
643.52	36464.08
643.72	35960.28
643.91	36015.58
644.10	35984.86
644.30	36060.63
644.49	35714.53
644.69	36279.77
644.88	35968.48
645.08	35689.95
645.27	36034.01
645.46	35749.34
645.66	36050.39
645.85	35638.75
646.05	35759.58
646.24	35720.67
646.43	35857.88
646.63	36144.60
646.82	36255.19
647.02	35739.10
647.21	36093.40
647.40	35765.73
647.60	35986.91
647.79	35970.52
647.99	35579.36
648.18	35624.42
648.37	36382.16
648.57	35964.38
648.76	35689.95
648.96	35835.36
649.15	35737.05
649.34	36156.89
649.54	35894.75
649.73	35876.32
649.92	35941.85
650.12	36152.79
650.31	35659.23
650.51	35853.79
650.70	35890.65
650.89	35999.19
651.09	36167.13
651.28	35925.47
651.47	36068.83
651.67	35900.89
651.86	36167.13
652.06	35675.62
652.25	35757.53
652.44	35436.00
652.64	35413.48
652.83	35735.01
653.02	35657.18
653.22	35943.90
653.41	35497.44
653.60	35538.40
653.80	35806.69
653.99	35749.34
654.18	35638.75
654.38	35904.99
654.57	35757.53
654.76	35829.21
654.96	35522.02
655.15	35550.69
655.34	35251.69
655.54	35247.59
655.73	35450.34
655.92	35636.70
656.12	35571.17
656.31	35266.02
656.50	35534.31
656.70	35632.61
656.89	35026.41
657.08	35640.80
657.28	35542.50
657.47	35282.41
657.66	35675.62
657.86	35040.75
658.05	35112.42
658.24	35368.42
658.43	35161.58
658.63	35532.26
658.82	35356.13
659.01	35503.59
659.21	35067.37
659.40	35298.79
659.59	35110.38
659.79	35386.85
659.98	35487.20
660.17	35634.66
660.36	35263.97
660.56	35444.20
660.75	35286.50
660.94	35040.75
661.14	35143.14
661.33	35276.26
661.52	34928.11
661.71	35591.65
661.91	35098.09
662.10	35083.75
662.29	35446.24
662.49	34964.97
662.68	35132.90
662.87	35216.87
663.06	35280.36
663.26	35032.55
663.45	35325.41
663.64	35022.31
663.83	35464.67
664.03	35096.04
664.22	34928.11
664.41	35069.42
664.60	34797.04
664.80	35018.22
664.99	34907.63
665.18	34858.48
665.37	34825.71
665.57	35155.43
665.76	34807.28
665.95	34739.69
666.14	34827.76
666.34	34967.02
666.53	34911.72
666.72	34825.71
666.91	34629.10
667.11	34754.03
667.30	34782.70
667.49	34766.32
667.68	34647.54
667.87	34754.03
668.07	34688.49
668.26	34575.86
668.45	34846.19
668.64	34735.60
668.84	34799.08
669.03	34522.61
669.22	34899.44
669.41	34405.88
669.60	34848.24
669.80	34665.97
669.99	34708.97
670.18	34375.16
670.37	34919.92
670.57	34903.53
670.76	34653.68
670.95	34344.44
671.14	34598.38
671.33	34711.02
671.53	34854.38
671.72	34545.14
671.91	34274.80
672.10	34647.54
672.29	34489.84
672.48	34522.61
672.68	34784.75
672.87	34123.26
673.06	34215.41
673.25	33990.14
673.44	34104.82
673.64	34235.89
673.83	34119.16
674.02	34293.24
674.21	33877.50
674.40	34248.18
674.59	33783.29
674.79	34178.55
674.98	34123.26
675.17	34078.20
675.36	33953.27
675.55	34252.28
675.74	33916.41
675.94	33738.24
676.13	34209.27
676.32	33885.69
676.51	34420.21
676.70	33924.60
676.89	33961.47
677.08	33924.60
677.28	33625.60
677.47	34106.87
677.66	33836.54
677.85	33920.51
678.04	33852.92
678.23	33940.99
678.42	34076.15
678.62	33547.78
678.81	33820.16
679.00	33668.61
679.19	33996.28
679.38	33517.06
679.57	33848.83
679.76	33404.42
679.96	33656.32
680.15	33355.27
680.34	33523.20
680.53	33654.27
680.72	33472.00
680.91	33846.78
681.10	33297.92
681.29	33424.90
681.48	32992.78
681.68	33064.46
681.87	33496.58
682.06	33322.50
682.25	33248.77
682.44	33385.99
682.63	33385.99
682.82	33017.35
683.01	33244.68
683.20	32878.09
683.39	32908.81
683.59	32749.07
683.78	32964.10
683.97	33023.50
684.16	33113.61
684.35	33031.69
684.54	32826.89
684.73	32996.87
684.92	32857.61
685.11	32906.76
685.30	32456.21
685.49	33203.72
685.69	32372.24
685.88	32744.97
686.07	32495.12
686.26	32790.03
686.45	32800.27
686.64	32704.01
686.83	32613.90
687.02	33158.66
687.21	32689.68
687.40	32353.81
687.59	32620.05
687.78	32509.46
687.97	32757.26
688.16	32628.24
688.35	32577.04
688.54	32306.71
688.74	32407.06
688.93	32554.51
689.12	32454.16
689.31	32478.74
689.50	32218.64
689.69	31835.67
689.88	32046.62
690.07	32316.95
690.26	32034.33
690.45	32032.28
690.64	31956.50
690.83	32009.75
691.02	32202.26
691.21	32167.45
691.40	32009.75
691.59	31950.36
691.78	31997.46
691.97	32028.18
692.16	31749.66
692.35	32050.71
692.54	31817.24
692.73	32007.70
692.92	31745.56
693.11	31768.09
693.30	31514.14
693.49	31559.20
693.68	31577.63
693.87	31641.12
694.06	31444.51
694.25	31776.28
694.44	31514.14
694.63	31757.85
694.82	31641.12
695.01	31342.11
695.20	31084.07
695.39	31454.75
695.58	31319.59
695.77	31225.38
695.96	31280.67
696.15	31424.03
696.34	30934.57
696.53	31176.23
696.72	31409.70
696.91	31086.12
697.10	30907.94
697.29	30993.96
697.48	31077.93
697.67	30891.56
697.86	30828.07
698.05	30772.78
698.24	31225.38
698.43	30594.61
698.62	31233.57
698.81	30660.14
699.00	31243.81
699.19	30420.53
699.38	30828.07
699.57	30494.25
699.76	30871.08
699.95	30830.12
700.14	30844.46
700.32	30549.55
700.51	30717.48
700.70	30950.95
700.89	30725.68
701.08	30551.60
701.27	30545.45
701.46	30535.21
701.65	30058.04
701.84	30481.97
702.03	30660.14
702.22	30484.01
702.41	30242.35
702.60	30510.64
702.79	30174.77
702.98	30291.51
703.17	30289.46
703.35	30082.61
703.54	29965.88
703.73	30418.48
703.92	30416.43
704.11	30107.19
704.30	29943.35
704.49	30357.04
704.68	29859.38
704.87	29937.21
705.06	29877.82
705.25	29775.42
705.43	29748.79
705.62	29771.32
705.81	29587.00
706.00	29877.82
706.19	29421.12
706.38	29799.99
706.57	29843.00
706.76	29228.61
706.95	29578.81
707.14	29343.30
707.32	29390.40
707.51	29300.29
707.70	29300.29
707.89	29392.45
708.08	29617.72
708.27	29380.16
708.46	29500.99
708.65	28952.13
708.84	28886.60
709.02	29214.27
709.21	29173.31
709.40	29242.95
709.59	29226.56
709.78	28902.98
709.97	28921.41
710.16	28905.03
710.34	28911.17
710.53	29083.20
710.72	28808.78
710.91	29072.96
711.10	28767.82
711.29	28900.94
711.48	28841.54
711.66	28724.81
711.85	28950.09
712.04	28534.35
712.23	28894.79
712.42	28847.69
712.61	28882.50
712.80	28915.27
712.98	28528.20
713.17	28653.13
713.36	28655.18
713.55	28677.71
713.74	28649.03
713.93	28268.11
714.11	28522.06
714.30	28319.31
714.49	28044.88
714.68	28380.75
714.87	28434.00
715.06	28577.36
715.24	28638.80
715.43	28423.76
715.62	28155.47
715.81	28091.99
716.00	28124.75
716.18	28223.06
716.37	28030.55
716.56	28016.21
716.75	28171.86
716.94	28165.71
717.12	27706.97
717.31	27962.97
717.50	27852.38
717.69	27614.81
717.88	27719.26
718.06	27891.29
718.25	27940.44
718.44	27514.46
718.63	27668.06
718.82	27526.75
719.00	27661.91
719.19	27526.75
719.38	27383.39
719.57	27274.85
719.76	27213.41
719.94	27262.56
720.13	27031.14
720.32	27113.06
720.51	27160.16
720.69	27057.76
720.88	27031.14
721.07	27190.88
721.26	27184.74
721.44	27018.85
721.63	26959.46
721.82	26891.88
722.01	26605.16
722.20	26730.09
722.38	26601.07
722.57	26480.24
722.76	26420.84
722.95	26867.30
723.13	26472.04
723.32	26556.01
723.51	26259.06
723.70	26238.58
723.88	26404.46
724.07	26316.40
724.26	26211.95
724.44	26148.46
724.63	26394.22
724.82	26240.62
725.01	26269.30
725.19	26166.90
725.38	26226.29
725.57	26031.73
725.76	26117.75
725.94	26035.83
726.13	25984.63
726.32	25869.94
726.51	25833.08
726.69	26041.97
726.88	26066.55
727.07	25886.32
727.25	25749.11
727.44	26089.07
727.63	25609.85
727.82	25896.56
728.00	26025.59
728.19	25800.31
728.38	25933.43
728.56	25437.82
728.75	25908.85
728.94	25437.82
729.12	25560.70
729.31	25679.48
729.50	25613.95
729.69	25665.14
729.87	25337.47
730.06	25615.99
730.25	25570.94
730.43	25587.32
730.62	25316.99
730.81	25593.47
730.99	25341.57
731.18	25611.90
731.37	25497.21
731.55	25589.37
731.74	25497.21
731.93	25364.09
732.11	25319.04
732.30	25384.57
732.49	25093.76
732.67	25357.95
732.86	25419.39
733.05	25407.10
733.23	25067.14
733.42	25104.00
733.61	24972.93
733.79	25132.67
733.98	25312.89
734.17	24923.78
734.35	25026.18
734.54	25181.82
734.73	24841.86
734.91	25159.30
735.10	24667.78
735.29	24837.76
735.47	24534.67
735.66	24919.68
735.84	24964.74
736.03	24721.03
736.22	24778.37
736.40	24565.39
736.59	24891.01
736.78	24821.38
736.96	24475.27
737.15	25104.00
737.33	24753.80
737.52	24336.01
737.71	24768.13
737.89	24417.93
738.08	24557.19
738.27	24376.97
738.45	24886.92
738.64	24432.27
738.82	24438.41
739.01	24688.26
739.20	24342.16
739.38	24383.12
739.57	24698.50
739.75	24553.10
739.94	24311.44
740.13	24034.96
740.31	24280.72
740.50	24383.12
740.68	24336.01
740.87	24649.35
741.06	24399.50
741.24	24166.03
741.43	24233.61
741.61	24092.30
741.80	24243.85
741.99	24190.61
742.17	24086.16
742.36	24223.37
742.54	24270.48
742.73	24120.98
742.91	24211.09
743.10	24069.78
743.29	24241.81
743.47	24395.40
743.66	23838.36
743.84	23940.75
744.03	23893.65
744.21	23748.25
744.40	23991.95
744.59	23703.19
744.77	23864.98
744.96	23586.46
745.14	23758.49
745.33	23690.90
745.51	23522.97
745.70	23740.05
745.88	23611.03
746.07	23658.14
746.26	23615.13
746.44	23527.06
746.63	23793.30
746.81	23498.39
747.00	23371.42
747.18	23670.42
747.37	23576.22
747.55	23484.06
747.74	23479.96
747.92	23488.15
748.11	23490.20
748.29	23441.05
748.48	23658.14
748.66	23277.21
748.85	23240.35
749.03	23320.22
749.22	23056.03
749.41	22988.45
749.59	23252.64
749.78	23099.04
749.96	22963.87
750.15	23207.58
750.33	23156.38
750.52	22955.68
750.70	22881.95
750.89	22752.93
751.07	22605.48
751.26	22947.49
751.44	22611.62
751.63	22552.23
751.81	22570.66
752.00	22644.39
752.18	22748.84
752.37	22630.05
752.55	22566.57
752.74	22814.37
752.92	22238.89
753.10	22597.29
753.29	22421.16
753.47	22511.27
753.66	22132.40
753.84	22646.44
754.03	22275.76
754.21	22472.36
754.40	22521.51
754.58	22617.77
754.77	22367.91
754.95	22281.90
755.14	22331.05
755.32	22341.29
755.51	22355.63
755.69	22132.40
755.88	22331.05
756.06	22404.78
756.24	22245.04
756.43	22128.30
756.61	22156.97
756.80	22316.72
756.98	21853.87
757.17	22171.31
757.35	21866.16
757.54	22103.73
757.72	22097.58
757.90	22163.12
758.09	21909.17
758.27	22054.58
758.46	21778.10
758.64	22003.38
758.83	21853.87
759.01	21868.21
759.19	22007.47
759.38	21585.59
759.56	21866.16
759.75	21733.04
759.93	21731.00
760.12	21866.16
760.30	21900.98
760.48	21841.59
760.67	21608.12
760.85	21776.05
761.04	21984.94
761.22	21632.69
761.40	21690.04
761.59	21268.16
761.77	21434.04
761.96	21421.75
762.14	21558.97
762.32	21370.55
762.51	21362.36
762.69	21720.76
762.88	21292.73
763.06	21286.59
763.24	21096.13
763.43	21595.83
763.61	21339.83
763.80	21141.18
763.98	21001.92
764.16	21036.74
764.35	21173.95
764.53	20969.15
764.72	21018.30
764.90	21141.18
765.08	20993.73
765.27	20850.37
765.45	20780.74
765.63	20713.16
765.82	21057.21
766.00	20467.40
766.18	20979.39
766.37	21042.88
766.55	20735.68
766.74	20874.95
766.92	20768.45
767.10	20563.65
767.29	20715.20
767.47	20362.95
767.65	20502.22
767.84	20633.29
768.02	20770.50
768.20	20397.77
768.39	20598.47
768.57	20588.23
768.75	20229.84
768.94	20522.69
769.12	20532.93
769.30	20362.95
769.49	20408.01
769.67	20414.15
769.85	20299.47
770.04	20365.00
770.22	20299.47
770.40	20115.15
770.59	20342.47
770.77	20217.55
770.95	20068.05
771.14	20018.89
771.32	19934.93
771.50	19994.32
771.69	20109.01
771.87	20113.10
772.05	20041.42
772.24	19863.25
772.42	19844.82
772.60	20041.42
772.78	19699.41
772.97	19797.71
773.15	19898.06
773.33	19791.57
773.52	19642.07
773.70	19914.45
773.88	19752.66
774.07	19812.05
774.25	19703.51
774.43	19900.11
774.61	19697.36
774.80	19971.79
774.98	19826.39
775.16	19846.87
775.34	19850.96
775.53	19631.83
775.71	19699.41
775.89	19914.45
776.08	19527.38
776.26	19748.56
776.44	19664.60
776.62	19762.90
776.81	19625.68
776.99	19869.39
777.17	19316.44
777.35	19773.14
777.54	19922.64
777.72	19867.34
777.90	19734.23
778.08	19932.88
778.27	19578.58
778.45	19756.75
778.63	19644.12
778.81	19783.38
779.00	19754.71
779.18	19828.43
779.36	19850.96
779.54	19672.79
779.73	19959.50
779.91	20158.16
780.09	20004.56
780.27	19955.41
780.46	19666.64
780.64	19893.97
780.82	20016.85
781.00	19785.43
781.19	20133.58
781.37	19871.44
781.55	19945.17
781.73	19859.15
781.91	19891.92
782.10	19863.25
782.28	19846.87
782.46	19850.96
782.64	19920.59
782.82	19762.90
783.01	19783.38
783.19	19697.36
783.37	20002.51
783.55	19801.81
783.74	19939.02
783.92	19691.22
784.10	20229.84
784.28	20094.67
784.46	19580.63
784.64	19799.76
784.83	19881.68
785.01	19709.65
785.19	20053.71
785.37	19832.53
785.55	19746.51
785.74	19766.99
785.92	19830.48
786.10	19932.88
786.28	19488.47
786.46	19605.20
786.64	19566.29
786.83	19584.73
787.01	19912.40
787.19	19390.17
787.37	19584.73
787.55	19619.54
787.74	19508.95
787.92	19543.77
788.10	19400.41
788.28	19412.70
788.46	19697.36
788.64	19402.46
788.82	19777.23
789.01	19373.78
789.19	19574.49
789.37	19543.77
789.55	19625.68
789.73	19230.43
789.91	19330.78
790.09	19381.98
790.28	19345.11
790.46	19105.50
790.64	19449.56
790.82	19242.71
791.00	19048.16
791.18	19142.36
791.36	19125.98
791.55	18863.84
791.73	18833.12
791.91	18734.82
792.09	18978.53
792.27	18880.22
792.45	18783.97
792.63	18863.84
792.81	18503.40
793.00	18781.92
793.18	18767.59
793.36	18872.03
793.54	18401.00
793.72	18585.32
793.90	18507.49
794.08	18468.58
794.26	18683.62
794.44	18292.46
794.62	18374.38
794.81	18357.99
794.99	18157.29
795.17	18441.96
795.35	18241.26
795.53	18368.23
795.71	18102.00
795.89	18116.33
796.07	18204.39
796.25	17817.33
796.43	17932.01
796.61	18011.89
796.80	17721.07
796.98	17512.18
797.16	17743.60
797.34	17716.98
797.52	17602.29
797.70	17735.41
797.88	17692.40
798.06	17440.50
798.24	17471.22
798.42	17473.27
798.60	17401.59
798.78	17577.72
798.96	17329.91
799.14	17370.87
799.32	17301.24
799.51	17227.51
799.69	17252.09
799.87	17260.28
800.05	17190.65
800.23	16910.08
800.41	16985.85
800.59	17225.47
800.77	16955.13
800.95	16879.36
801.13	17112.83
801.31	17149.69
801.49	16703.23
801.67	16969.47
801.85	16813.82
802.03	16717.57
802.21	16553.73
802.39	16611.07
802.57	16631.55
802.75	16353.03
802.93	16598.79
803.11	16422.66
803.29	16197.38
803.47	16447.24
803.65	16443.14
803.83	16420.61
804.01	16398.09
804.19	16144.14
804.37	16369.41
804.55	16228.10
804.73	16221.96
804.91	16086.79
805.09	16062.22
805.27	16140.04
805.45	16424.71
805.63	15988.49
805.81	16140.04
805.99	16168.71
806.17	16041.74
806.35	15949.58
806.53	15832.85
806.71	15898.38
806.89	15843.09
807.07	15783.70
807.25	15666.96
807.43	15656.72
807.61	15496.98
807.79	15718.16
807.97	15554.32
808.15	15714.06
808.33	15605.52
808.51	15576.85
808.69	15275.80
808.87	15384.34
809.05	15343.38
809.23	15324.95
809.41	15365.91
809.59	15433.49
809.77	15363.86
809.95	15114.01
810.13	15238.94
810.31	15339.29
810.49	15335.19
810.67	15255.32
810.84	14993.18
811.02	15181.59
811.20	14837.53
811.38	14962.46
811.56	15050.52
811.74	15132.44
811.92	14853.92
812.10	15146.78
812.28	14812.96
812.46	14892.83
812.64	14724.90
812.82	14911.26
813.00	14714.66
813.18	14690.08
813.36	14528.29
813.53	14536.48
813.71	14522.15
813.89	14559.01
814.07	14642.98
814.25	14645.02
814.43	14593.83
814.61	14538.53
814.79	14378.79
814.97	14503.71
815.15	14352.16
815.33	14227.24
815.50	14270.25
815.68	14147.37
815.86	14280.49
816.04	14290.73
816.22	14112.55
816.40	14317.35
816.58	14151.46
816.76	14268.20
816.94	14165.80
817.11	14065.45
817.29	14004.01
817.47	13979.43
817.65	13958.96
817.83	13725.49
818.01	13938.48
818.19	13793.07
818.37	13803.31
818.54	13768.49
818.72	13436.72
818.90	13639.47
819.08	13840.17
819.26	13780.78
819.44	13541.17
819.62	13508.40
819.80	13586.22
819.97	13520.69
820.15	13338.42
820.33	13244.21
820.51	13504.31
820.69	13510.45
820.87	13422.39
821.05	13498.16
821.22	13389.62
821.40	13430.58
821.58	13231.93
821.76	13274.93
821.94	13504.31
822.12	13412.15
822.29	13596.46
822.47	13461.30
822.65	13262.65
822.83	13391.67
823.01	13246.26
823.19	13123.38
823.36	13195.06
823.54	13147.96
823.72	13055.80
823.90	13090.62
824.08	12896.06
824.25	12955.45
824.43	12992.31
824.61	12996.41
824.79	13063.99
824.97	13150.01
825.15	12951.35
825.32	13104.95
825.50	12873.53
825.68	12717.89
825.86	12853.05
826.04	12840.76
826.21	12853.05
826.39	12822.33
826.57	12689.21
826.75	12914.49
826.93	12517.18
827.10	12543.81
827.28	12580.67
827.46	12781.37
827.64	12447.55
827.81	12726.08
827.99	12666.69
828.17	12625.73
828.35	12527.42
828.53	12658.49
828.70	12570.43
828.88	12396.35
829.06	12480.32
829.24	12556.10
829.41	12465.99
829.59	12529.47
829.77	12308.29
829.95	12425.03
830.12	12214.09
830.30	12445.51
830.48	12169.03
830.66	12326.72
830.84	12248.90
831.01	12250.95
831.19	12244.81
831.37	12400.45
831.55	12162.89
831.72	12095.30
831.90	12103.50
832.08	12140.36
832.25	12007.24
832.43	12033.86
832.61	12031.82
832.79	11927.37
832.96	11941.71
833.14	11958.09
833.32	11988.81
833.50	12209.99
833.67	11923.27
833.85	11874.12
834.03	11687.76
834.20	12009.29
834.38	11773.77
834.56	12021.58
834.74	11941.71
834.91	11804.49
835.09	11710.29
835.27	11718.48
835.44	11642.70
835.62	11396.95
835.80	11661.13
835.98	11667.28
836.15	11464.53
836.33	11585.36
836.51	11611.98
836.68	11548.50
836.86	11642.70
837.04	11421.52
837.21	11417.43
837.39	11442.00
837.57	11503.44
837.75	11568.98
837.92	11493.20
838.10	11534.16
838.28	11196.25
838.45	11337.56
838.63	11251.54
838.81	11433.81
838.98	11269.97
839.16	11503.44
839.34	11329.36
839.51	11155.29
839.69	11267.92
839.87	11222.87
840.04	11312.98
840.22	11102.04
840.40	11325.27
840.57	11050.84
840.75	11190.10
840.93	11022.17
841.10	11095.89
841.28	11288.40
841.46	11030.36
841.63	11188.05
841.81	11186.01
841.98	11020.12
842.16	11065.18
842.34	10934.11
842.51	11013.98
842.69	10962.78
842.87	10936.15
843.04	11056.98
843.22	10889.05
843.40	10930.01
843.57	11011.93
843.75	11093.85
843.92	11128.66
844.10	10936.15
844.28	11050.84
844.45	11007.83
844.63	11030.36
844.81	10872.67
844.98	10727.26
845.16	10712.92
845.33	10813.28
845.51	11046.74
845.69	10731.36
845.86	10551.14
846.04	10694.49
846.21	10788.70
846.39	10751.84
846.57	10614.62
846.74	10686.30
846.92	10651.49
847.09	10641.25
847.27	10643.29
847.45	10714.97
847.62	10702.68
847.80	10669.92
847.97	10467.17
848.15	10424.16
848.32	10407.78
848.50	10446.69
848.68	10413.92
848.85	10536.80
849.03	10215.27
849.20	10581.85
849.38	10436.45
849.56	10354.53
849.73	10313.57
849.91	10501.98
850.08	10344.29
850.26	10248.04
850.43	10256.23
850.61	10350.43
850.78	10047.33
850.96	10221.41
851.14	10047.33
851.31	10252.13
851.49	10239.84
851.66	10215.27
851.84	10245.99
852.01	10223.46
852.19	10162.02
852.36	10141.54
852.54	9971.56
852.71	10213.22
852.89	10059.62
853.07	10049.38
853.24	10045.29
853.42	9885.55
853.59	10102.63
853.77	10037.09
853.94	10049.38
854.12	10106.73
854.29	9848.68
854.47	9963.37
854.64	9910.12
854.82	9955.18
854.99	9734.00
855.17	9709.42
855.34	9883.50
855.52	9871.21
855.69	9744.24
855.87	9707.37
856.04	9815.91
856.22	9766.76
856.39	9613.17
856.57	9744.24
856.74	9897.83
856.92	9553.77
857.09	9627.50
857.27	9744.24
857.44	9793.39
857.62	9680.75
857.79	9486.19
857.97	9625.45
858.14	9666.41
858.32	9627.50
858.49	9635.69
858.67	9541.49
858.84	9607.02
859.02	9346.93
859.19	9394.03
859.37	9371.50
859.54	9262.96
859.72	9410.42
859.89	9502.58
860.06	9406.32
860.24	9510.77
860.41	9510.77
860.59	9449.33
860.76	9736.04
860.94	9246.58
861.11	9412.46
861.29	9377.65
861.46	9404.27
861.64	9324.40
861.81	9293.68
861.98	9424.75
862.16	9265.01
862.33	9119.60
862.51	9406.32
862.68	9232.24
862.86	9346.93
863.03	9170.80
863.21	9244.53
863.38	9269.11
863.55	9260.91
863.73	9215.86
863.90	9176.95
864.08	9244.53
864.25	9117.56
864.43	9052.02
864.60	9097.08
864.77	8959.86
864.95	8918.90
865.12	8980.34
865.30	9029.49
865.47	8927.10
865.64	9080.69
865.82	9023.35
865.99	8990.58
866.17	8892.28
866.34	9002.87
866.51	8824.70
866.69	8814.46
866.86	8918.90
867.04	8908.66
867.21	8808.31
867.38	8859.51
867.56	8703.87
867.73	8650.62
867.91	8664.96
868.08	8748.92
868.25	8664.96
868.43	8503.17
868.60	8710.01
868.78	8589.18
868.95	8718.20
869.12	8662.91
869.30	8646.52
869.47	8701.82
869.64	8613.76
869.82	8679.29
869.99	8531.84
870.16	8480.64
870.34	8589.18
870.51	8595.32
870.69	8509.31
870.86	8413.06
871.03	8365.95
871.21	8390.53
871.38	8345.47
871.55	8304.51
871.73	8357.76
871.90	8466.30
872.07	8226.69
872.25	8281.99
872.42	8165.25
872.59	8206.21
872.77	8193.92
872.94	8294.27
873.11	8109.96
873.29	8329.09
873.46	8306.56
873.63	8327.04
873.81	8290.18
873.98	8218.50
874.15	8150.92
874.33	8101.76
874.50	8073.09
874.67	8120.20
874.85	8085.38
875.02	8089.48
875.19	7999.37
875.37	7958.41
875.54	7937.93
875.71	7929.74
875.88	7913.35
876.06	7919.50
876.23	7796.62
876.40	7903.11
876.58	7610.25
876.75	7847.82
876.92	7950.21
877.10	7894.92
877.27	7698.31
877.44	7884.68
877.61	7634.83
877.79	7722.89
877.96	7915.40
878.13	7819.14
878.31	7665.55
878.48	7702.41
878.65	7712.65
878.82	7661.45
879.00	7610.25
879.17	7524.24
879.34	7692.17
879.51	7784.33
879.69	7622.54
879.86	7419.79
880.03	7524.24
880.21	7446.41
880.38	7520.14
880.55	7606.16
880.72	7477.13
880.90	7585.68
881.07	7262.10
881.24	7530.38
881.41	7440.27
881.59	7493.52
881.76	7589.77
881.93	7462.80
882.10	7354.26
882.28	7337.87
882.45	7546.76
882.62	7423.89
882.79	7409.55
882.96	7276.43
883.14	7421.84
883.31	7325.58
883.48	7413.65
883.65	7411.60
883.83	7446.41
884.00	7497.61
884.17	7292.82
884.34	7169.94
884.51	7339.92
884.69	7143.32
884.86	7249.81
885.03	7311.25
885.20	7030.68
885.38	7186.32
885.55	7143.32
885.72	7223.19
885.89	7339.92
886.06	7301.01
886.24	7235.47
886.41	7079.83
886.58	7206.80
886.75	7184.27
886.92	7233.43
887.10	7128.98
887.27	7090.07
887.44	7198.61
887.61	7307.15
887.78	7165.84
887.95	6971.29
888.13	6956.95
888.30	6936.47
888.47	7022.48
888.64	7022.48
888.81	7067.54
888.99	7065.49
889.16	6909.85
889.33	7028.63
889.50	6899.61
889.67	7002.01
889.84	6920.09
890.01	6985.62
890.19	6840.22
890.36	7036.82
890.53	6791.06
890.70	6989.72
890.87	6770.58
891.04	6786.97
891.22	6758.30
891.39	6643.61
891.56	6780.82
891.73	6936.47
891.90	6752.15
892.07	6772.63
892.24	6739.87
892.42	6668.19
892.59	6725.53
892.76	6555.55
892.93	6897.56
893.10	6770.58
893.27	6727.58
893.44	6746.01
893.61	6553.50
893.79	6756.25
893.96	6711.19
894.13	6627.23
894.30	6688.67
894.47	6721.43
894.64	6492.06
894.81	6487.96
894.98	6729.63
895.15	6723.48
895.33	6627.23
895.50	6567.84
895.67	6643.61
895.84	6643.61
896.01	6629.27
896.18	6590.36
896.35	6586.27
896.52	6559.64
896.69	6680.47
896.86	6537.12
897.04	6621.08
897.21	6490.01
897.38	6461.34
897.55	6670.23
897.72	6543.26
897.89	6692.76
898.06	6592.41
898.23	6586.27
898.40	6594.46
898.57	6533.02
898.74	6453.15
898.91	6596.51
899.08	6481.82
899.26	6557.60
899.43	6490.01
899.60	6506.40
899.77	6659.99
899.94	6481.82
900.11	6516.64
900.28	6447.01
900.45	6543.26
900.62	6455.20
900.79	6436.77
900.96	6369.18
901.13	6254.50
901.30	6447.01
901.47	6303.65
901.64	6447.01
901.81	6344.61
901.98	6469.53
902.15	6549.40
902.32	6457.25
902.49	6401.95
902.66	6418.33
902.83	6485.92
903.01	6508.44
903.18	6334.37
903.35	6393.76
903.52	6283.17
903.69	6506.40
903.86	6252.45
904.03	6467.49
904.20	6248.35
904.37	6244.26
904.54	6356.90
904.71	6444.96
904.88	6250.40
905.05	6352.80
905.22	6242.21
905.39	6227.87
905.56	6320.03
905.73	6344.61
905.90	6348.70
906.07	6426.53
906.24	6432.67
906.41	6387.61
906.58	6342.56
906.75	6363.04
906.92	6385.57
907.09	6326.18
907.26	6322.08
907.43	6234.02
907.60	6172.58
907.77	6229.92
907.93	6336.42
908.10	6184.87
908.27	6350.75
908.44	6330.27
908.61	6322.08
908.78	6346.66
908.95	6234.02
909.12	6291.36
909.29	6137.76
909.46	6209.44
909.63	6246.30
909.80	6195.11
909.97	6213.54
910.14	6178.72
910.31	6246.30
910.48	6104.99
910.65	6348.70
910.82	6166.43
910.99	6332.32
911.16	6002.60
911.33	6004.64
911.50	6061.99
911.66	6213.54
911.83	6080.42
912.00	6064.04
912.17	6162.34
912.34	5949.35
912.51	6158.24
912.68	6006.69
912.85	6045.60
913.02	5955.49
913.19	6084.52
913.36	6143.91
913.53	6059.94
913.70	5994.40
913.86	5949.35
914.03	5881.77
914.20	5900.20
914.37	5959.59
914.54	5885.86
914.71	5975.97
914.88	5992.36
915.05	5869.48
915.22	5937.06
915.39	5842.85
915.55	5740.46
915.72	5773.22
915.89	5717.93
916.06	5795.75
916.23	5812.14
916.40	5824.42
916.57	5744.55
916.74	5765.03
916.91	5711.78
917.07	5822.38
917.24	5752.74
917.41	5717.93
917.58	5711.78
917.75	5625.77
917.92	5578.67
918.09	5666.73
918.26	5629.87
918.42	5654.44
918.59	5611.43
918.76	5629.87
918.93	5527.47
919.10	5502.89
919.27	5627.82
919.44	5605.29
919.60	5711.78
919.77	5498.80
919.94	5539.76
920.11	5560.24
920.28	5560.24
920.45	5425.07
920.61	5517.23
920.78	5480.36
920.95	5525.42
921.12	5427.12
921.29	5466.03
921.46	5380.01
921.62	5158.83
921.79	5238.70
921.96	5205.94
922.13	5222.32
922.30	5197.74
922.47	5255.09
922.63	5220.27
922.80	5136.31
922.97	5040.05
923.14	5111.73
923.31	5162.93
923.47	5044.15
923.64	5267.38
923.81	5052.34
923.98	5156.79
924.15	5033.91
924.32	5097.39
924.48	5132.21
924.65	5048.24
924.82	5052.34
924.99	4972.47
925.15	4937.65
925.32	5105.59
925.49	4960.18
925.66	4951.99
925.83	4868.02
925.99	4925.36
926.16	4863.93
926.33	4820.92
926.50	4831.16
926.67	4855.73
926.83	4837.30
927.00	4919.22
927.17	4786.10
927.34	4706.23
927.50	4794.29
927.67	4790.20
927.84	4681.66
928.01	4765.62
928.17	4597.69
928.34	4693.94
928.51	4569.02
928.68	4642.75
928.84	4540.35
929.01	4503.48
929.18	4550.59
929.35	4491.20
929.51	4540.35
929.68	4419.52
929.85	4448.19
930.02	4515.77
930.18	4392.89
930.35	4415.42
930.52	4505.53
930.69	4495.29
930.85	4446.14
931.02	4353.98
931.19	4394.94
931.36	4349.89
931.52	4345.79
931.69	4321.21
931.86	4394.94
932.02	4300.73
932.19	4263.87
932.36	4227.01
932.53	4241.34
932.69	4231.10
932.86	4315.07
933.03	4267.97
933.19	4091.84
933.36	4159.42
933.53	4153.28
933.70	4044.74
933.86	4153.28
934.03	4034.50
934.20	3977.16
934.36	4057.03
934.53	3979.20
934.70	3956.68
934.86	3966.92
935.03	3956.68
935.20	4038.59
935.36	3858.37
935.53	3737.54
935.70	3764.17
935.86	3862.47
936.03	3792.84
936.20	3850.18
936.36	3743.69
936.53	3708.87
936.70	3739.59
936.86	3665.86
937.03	3758.02
937.20	3592.14
937.36	3547.08
937.53	3510.22
937.70	3557.32
937.86	3450.83
938.03	3440.59
938.20	3481.55
938.36	3416.01
938.53	3239.89
938.70	3243.98
938.86	3360.72
939.03	3246.03
939.20	3391.44
939.36	3280.85
939.53	3174.35
939.70	3330.00
939.86	3139.54
940.03	3121.10
940.19	3090.38
940.36	3135.44
940.53	3121.10
940.69	3074.00
940.86	2998.23
941.03	3174.35
941.19	2953.17
941.36	2979.79
941.52	3020.75
941.69	2906.07
941.86	2922.45
942.02	2908.12
942.19	2858.96
942.35	2822.10
942.52	2858.96
942.69	2906.07
942.85	2893.78
943.02	2820.05
943.18	2863.06
943.35	2758.61
943.52	2781.14
943.68	2772.95
943.85	2729.94
944.01	2750.42
944.18	2783.19
944.35	2729.94
944.51	2678.74
944.68	2742.23
944.84	2695.13
945.01	2576.34
945.17	2721.75
945.34	2553.82
945.51	2721.75
945.67	2662.36
945.84	2660.31
946.00	2535.39
946.17	2654.17
946.33	2602.97
946.50	2639.83
946.67	2588.63
946.83	2510.81
947.00	2576.34
947.16	2516.95
947.33	2584.54
947.49	2547.67
947.66	2596.82
947.82	2631.64
947.99	2525.15
948.16	2594.78
948.32	2480.09
948.49	2516.95
948.65	2594.78
948.82	2525.15
948.98	2514.91
949.15	2496.47
949.31	2531.29
949.48	2484.19
949.64	2568.15
949.81	2623.45
949.97	2611.16
950.14	2635.74
950.30	2537.43
950.47	2504.67
950.63	2496.47
950.80	2467.80
950.96	2428.89
951.13	2605.02
951.30	2545.63
951.46	2457.56
951.63	2525.15
951.79	2492.38
951.96	2553.82
952.12	2584.54
952.29	2496.47
952.45	2494.43
952.62	2482.14
952.78	2445.27
952.94	2549.72
953.11	2594.78
953.27	2500.57
953.44	2533.34
953.60	2459.61
953.77	2521.05
953.93	2576.34
954.10	2461.66
954.26	2488.28
954.43	2463.71
954.59	2506.71
954.76	2527.19
954.92	2570.20
955.09	2545.63
955.25	2480.09
955.42	2426.84
955.58	2473.95
955.75	2480.09
955.91	2545.63
956.07	2467.80
956.24	2406.36
956.40	2449.37
956.57	2473.95
956.73	2443.23
956.90	2484.19
957.06	2445.27
957.23	2437.08
957.39	2475.99
957.56	2416.60
957.72	2353.12
957.88	2416.60
958.05	2559.96
958.21	2457.56
958.38	2537.43
958.54	2369.50
958.71	2486.23
958.87	2478.04
959.03	2475.99
959.20	2482.14
959.36	2291.68
959.53	2420.70
959.69	2351.07
959.85	2457.56
960.02	2447.32
960.18	2342.88
960.35	2357.21
960.51	2426.84
960.68	2371.55
960.84	2346.97
961.00	2412.51
961.17	2432.99
961.33	2482.14
961.50	2437.08
961.66	2379.74
961.82	2367.45
961.99	2389.98
962.15	2418.65
962.31	2334.68
962.48	2465.75
962.64	2402.27
962.81	2363.36
962.97	2447.32
963.13	2426.84
963.30	2351.07
963.46	2346.97
963.62	2346.97
963.79	2392.03
963.95	2357.21
964.12	2353.12
964.28	2299.87
964.44	2398.17
964.61	2428.89
964.77	2424.80
964.93	2371.55
965.10	2353.12
965.26	2314.20
965.42	2338.78
965.59	2263.01
965.75	2363.36
965.92	2344.92
966.08	2306.01
966.24	2383.84
966.41	2285.53
966.57	2387.93
966.73	2361.31
966.90	2371.55
967.06	2265.05
967.22	2308.06
967.39	2373.60
967.55	2291.68
967.71	2308.06
967.88	2297.82
968.04	2365.40
968.20	2369.50
968.37	2303.96
968.53	2273.25
968.69	2342.88
968.85	2365.40
969.02	2357.21
969.18	2361.31
969.34	2322.40
969.51	2258.91
969.67	2281.44
969.83	2285.53
970.00	2342.88
970.16	2260.96
970.32	2246.62
970.48	2398.17
970.65	2269.15
970.81	2334.68
970.97	2232.29
971.14	2197.47
971.30	2306.01
971.46	2363.36
971.63	2283.49
971.79	2306.01
971.95	2250.72
972.11	2265.05
972.28	2303.96
972.44	2326.49
972.60	2203.61
972.76	2234.33
972.93	2244.57
973.09	2224.09
973.25	2242.53
973.42	2263.01
973.58	2316.25
973.74	2168.80
973.90	2215.90
974.07	2213.85
974.23	2275.29
974.39	2281.44
974.55	2236.38
974.72	2228.19
974.88	2283.49
975.04	2277.34
975.20	2224.09
975.37	2232.29
975.53	2189.28
975.69	2181.09
975.85	2117.60
976.01	2131.94
976.18	2158.56
976.34	2275.29
976.50	2213.85
976.66	2242.53
976.83	2144.22
976.99	2242.53
977.15	2271.20
977.31	2220.00
977.47	2183.13
977.64	2246.62
977.80	2232.29
977.96	2162.66
978.12	2142.18
978.29	2160.61
978.45	2154.46
978.61	2093.02
978.77	2181.09
978.93	2136.03
979.10	2191.33
979.26	2156.51
979.42	2172.89
979.58	2195.42
979.74	2115.55
979.91	2082.78
980.07	2086.88
980.23	2103.26
980.39	2033.63
980.55	2090.98
980.71	2076.64
980.88	2035.68
981.04	2105.31
981.20	2144.22
981.36	2136.03
981.52	2164.70
981.68	2088.93
981.85	2140.13
982.01	2107.36
982.17	2086.88
982.33	2160.61
982.49	2119.65
982.65	2125.79
982.82	2138.08
982.98	2088.93
983.14	2082.78
983.30	2045.92
983.46	2148.32
983.62	2062.30
983.79	2156.51
983.95	1992.67
984.11	2043.87
984.27	2119.65
984.43	2144.22
984.59	2074.59
984.75	2109.41
984.91	2039.78
985.08	2068.45
985.24	2099.17
985.40	2023.39
985.56	2043.87
985.72	2056.16
985.88	2072.54
986.04	2093.02
986.20	2107.36
986.37	2009.06
986.53	2047.97
986.69	2084.83
986.85	2068.45
987.01	1982.43
987.17	1978.34
987.33	2095.07
987.49	2076.64
987.65	2035.68
987.82	2043.87
987.98	2035.68
988.14	2027.49
988.30	1955.81
988.46	2031.58
988.62	2050.02
988.78	2043.87
988.94	2002.91
989.10	1978.34
989.26	1982.43
989.42	2019.30
989.59	2011.11
989.75	1994.72
989.91	2052.06
990.07	2023.39
990.23	2017.25
990.39	2031.58
990.55	2129.89
990.71	1953.76
990.87	1990.63
991.03	1918.95
991.19	1974.24
991.35	1896.42
991.51	1959.91
991.67	2062.30
991.83	1976.29
992.00	2043.87
992.16	2007.01
992.32	1949.67
992.48	2023.39
992.64	1935.33
992.80	1976.29
992.96	1927.14
993.12	1968.10
993.28	1982.43
993.44	1955.81
993.60	2013.15
993.76	1968.10
993.92	1939.43
994.08	1914.85
994.24	1978.34
994.40	1918.95
994.56	1984.48
994.72	1945.57
994.88	1970.15
995.04	1875.94
995.20	1923.04
995.36	1890.28
995.52	1951.71
995.68	1957.86
995.84	1910.75
996.00	1947.62
996.16	1900.52
996.32	1929.19
996.48	1873.89
996.64	1972.19
996.80	1830.88
996.96	1970.15
997.12	1966.05
997.28	1937.38
997.44	1837.03
997.60	1951.71
997.76	1873.89
997.92	1953.76
998.08	1955.81
998.24	1896.42
998.40	1898.47
998.56	1929.19
998.72	1892.32
998.88	1873.89
999.04	1920.99
999.20	1964.00
999.36	1914.85
999.52	2023.39
999.68	1859.56
999.84	1898.47
1000.00	1914.85
1000.16	1978.34
1000.32	1859.56
1000.48	1863.65
1000.64	1843.17
1000.80	1908.71
1000.95	1822.69
1001.11	1898.47
1001.27	1906.66
1001.43	1898.47
1001.59	1841.12
1001.75	1863.65
1001.91	1931.23
1002.07	1863.65
1002.23	1826.79
1002.39	1884.13
1002.55	1869.80
1002.71	1875.94
1002.87	1869.80
1003.03	1828.84
1003.19	1923.04
1003.34	1959.91
1003.50	1812.45
1003.66	1982.43
1003.82	1923.04
1003.98	1806.31
1004.14	1804.26
1004.30	1812.45
1004.46	1775.59
1004.62	1832.93
1004.78	1853.41
1004.94	1877.99
1005.09	1798.12
1005.25	1925.09
1005.41	1808.36
1005.57	1841.12
1005.73	1785.83
1005.89	1861.60
1006.05	1802.21
1006.21	1867.75
1006.37	1779.68
1006.52	1845.22
1006.68	1812.45
1006.84	1884.13
1007.00	1806.31
1007.16	1894.37
1007.32	1824.74
1007.48	1839.08
1007.64	1824.74
1007.79	1779.68
1007.95	1736.68
1008.11	1841.12
1008.27	1847.27
1008.43	1851.36
1008.59	1871.84
1008.75	1761.25
1008.91	1720.29
1009.06	1791.97
1009.22	1781.73
1009.38	1841.12
1009.54	1777.64
1009.70	1845.22
1009.86	1824.74
1010.01	1832.93
1010.17	1787.88
1010.33	1822.69
1010.49	1789.92
1010.65	1830.88
1010.81	1810.40
1010.96	1783.78
1011.12	1771.49
1011.28	1746.92
1011.44	1783.78
1011.60	1851.36
1011.76	1804.26
1011.91	1712.10
1012.07	1794.02
1012.23	1787.88
1012.39	1734.63
1012.55	1757.16
1012.71	1763.30
1012.86	1775.59
1013.02	1841.12
1013.18	1701.86
1013.34	1767.40
1013.50	1806.31
1013.65	1822.69
1013.81	1689.57
1013.97	1794.02
1014.13	1712.10
1014.29	1712.10
1014.44	1683.43
1014.60	1769.44
1014.76	1781.73
1014.92	1810.40
1015.07	1726.44
1015.23	1744.87
1015.39	1689.57
1015.55	1669.09
1015.71	1677.29
1015.86	1705.96
1016.02	1759.21
1016.18	1742.82
1016.34	1783.78
1016.49	1724.39
1016.65	1746.92
1016.81	1673.19
1016.97	1654.76
1017.12	1783.78
1017.28	1736.68
1017.44	1689.57
1017.60	1710.05
1017.75	1751.01
1017.91	1753.06
1018.07	1751.01
1018.23	1699.81
1018.38	1656.81
1018.54	1716.20
1018.70	1767.40
1018.86	1687.53
1019.01	1576.94
1019.17	1787.88
1019.33	1759.21
1019.49	1699.81
1019.64	1744.87
1019.80	1736.68
1019.96	1691.62
1020.12	1728.49
1020.27	1699.81
1020.43	1732.58
1020.59	1648.61
1020.74	1736.68
1020.90	1665.00
1021.06	1650.66
1021.22	1693.67
1021.37	1650.66
1021.53	1650.66
1021.69	1652.71
1021.84	1624.04
1022.00	1730.53
1022.16	1730.53
1022.31	1656.81
1022.47	1716.20
1022.63	1687.53
1022.79	1669.09
1022.94	1632.23
1023.10	1660.90
1023.26	1626.09
1023.41	1703.91
1023.57	1689.57
1023.73	1695.72
1023.88	1632.23
1024.04	1718.25
1024.20	1626.09
1024.35	1699.81
1024.51	1660.90
1024.67	1693.67
1024.82	1652.71
1024.98	1669.09
1025.14	1665.00
1025.29	1656.81
1025.45	1634.28
1025.61	1619.94
1025.76	1660.90
1025.92	1679.33
1026.08	1640.42
1026.23	1671.14
1026.39	1609.70
1026.55	1656.81
1026.70	1621.99
1026.86	1634.28
1027.02	1669.09
1027.17	1665.00
1027.33	1632.23
1027.48	1634.28
1027.64	1644.52
1027.80	1644.52
1027.95	1591.27
1028.11	1683.43
1028.27	1689.57
1028.42	1693.67
1028.58	1662.95
1028.73	1648.61
1028.89	1636.33
1029.05	1642.47
1029.20	1691.62
>>>>>End Processed Spectral Data<<<<<
