SpectraSuite Data File
++++++++++++++++++++++++++++++++++++
Date: Tue Jun 13 11:53:15 CEST 2017
User: INFO_000
Dark Spectrum Present: No
Reference Spectrum Present: No
Number of Sampled Component Spectra: 1
Spectrometers: USB4H00879
Integration Time (usec): 30000 (USB4H00879)
Spectra Averaged: 1 (USB4H00879)
Boxcar Smoothing: 0 (USB4H00879)
Correct for Electrical Dark: No (USB4H00879)
Strobe/Lamp Enabled: No (USB4H00879)
Correct for Detector Non-linearity: No (USB4H00879)
Correct for Stray Light: No (USB4H00879)
Number of Pixels in Processed Spectrum: 3648
>>>>>Begin Processed Spectral Data<<<<<
345.13	1382.38
345.34	1382.38
345.56	1382.38
345.78	1351.66
345.99	1325.04
346.21	1474.54
346.42	1599.46
346.64	1480.68
346.86	1548.26
347.07	1490.92
347.29	1476.59
347.50	1478.63
347.72	1605.61
347.94	1527.78
348.15	1417.19
348.37	1497.07
348.59	1570.79
348.80	1464.30
349.02	1603.56
349.23	1650.66
349.45	1583.08
349.67	1619.94
349.88	1667.05
350.10	1646.57
350.31	1673.19
350.53	1587.18
350.75	1693.67
350.96	1656.81
351.18	1593.32
351.39	1660.90
351.61	1570.79
351.82	1628.14
352.04	1581.03
352.26	1593.32
352.47	1613.80
352.69	1642.47
352.90	1501.16
353.12	1642.47
353.34	1654.76
353.55	1648.61
353.77	1656.81
353.98	1636.33
354.20	1660.90
354.41	1636.33
354.63	1669.09
354.85	1656.81
355.06	1675.24
355.28	1630.18
355.49	1705.96
355.71	1564.65
355.92	1703.91
356.14	1640.42
356.35	1630.18
356.57	1646.57
356.79	1640.42
357.00	1626.09
357.22	1732.58
357.43	1601.51
357.65	1755.11
357.86	1662.95
358.08	1654.76
358.29	1732.58
358.51	1662.95
358.72	1714.15
358.94	1679.33
359.16	1601.51
359.37	1720.29
359.59	1677.29
359.80	1654.76
360.02	1654.76
360.23	1685.48
360.45	1751.01
360.66	1634.28
360.88	1708.01
361.09	1658.85
361.31	1677.29
361.52	1724.39
361.74	1740.77
361.95	1718.25
362.17	1640.42
362.38	1777.64
362.60	1763.30
362.81	1718.25
363.03	1615.85
363.24	1681.38
363.46	1699.81
363.67	1720.29
363.89	1736.68
364.10	1597.42
364.32	1730.53
364.53	1681.38
364.75	1650.66
364.96	1701.86
365.18	1705.96
365.39	1757.16
365.61	1736.68
365.82	1900.52
366.04	1699.81
366.25	1699.81
366.47	1693.67
366.68	1714.15
366.90	1765.35
367.11	1746.92
367.33	1699.81
367.54	1761.25
367.76	1738.73
367.97	1859.56
368.19	1818.60
368.40	1855.46
368.62	1751.01
368.83	1757.16
369.05	1771.49
369.26	1730.53
369.48	1732.58
369.69	1699.81
369.91	1765.35
370.12	1851.36
370.33	1777.64
370.55	1769.44
370.76	1775.59
370.98	1839.08
371.19	1761.25
371.41	1785.83
371.62	1783.78
371.84	1732.58
372.05	1865.70
372.27	1726.44
372.48	1789.92
372.69	1783.78
372.91	1796.07
373.12	1873.89
373.34	1912.80
373.55	1818.60
373.77	1900.52
373.98	1818.60
374.20	1832.93
374.41	1886.18
374.62	1918.95
374.84	1902.56
375.05	1914.85
375.27	1951.71
375.48	1925.09
375.70	1851.36
375.91	1880.04
376.12	1957.86
376.34	1877.99
376.55	1994.72
376.77	1994.72
376.98	1882.08
377.19	1873.89
377.41	1923.04
377.62	1892.32
377.84	1996.77
378.05	1849.32
378.27	1929.19
378.48	1925.09
378.69	1988.58
378.91	1990.63
379.12	1933.28
379.34	1966.05
379.55	2007.01
379.76	1964.00
379.98	1918.95
380.19	1951.71
380.41	1998.82
380.62	1964.00
380.83	1931.23
381.05	1920.99
381.26	2072.54
381.47	1986.53
381.69	2064.35
381.90	2019.30
382.12	1984.48
382.33	2009.06
382.54	1990.63
382.76	1970.15
382.97	2023.39
383.19	1959.91
383.40	2037.73
383.61	2086.88
383.83	2056.16
384.04	2056.16
384.25	2093.02
384.47	2117.60
384.68	2115.55
384.89	2039.78
385.11	2095.07
385.32	2017.25
385.54	2072.54
385.75	2066.40
385.96	2138.08
386.18	2093.02
386.39	2146.27
386.60	2133.98
386.82	2097.12
387.03	2086.88
387.24	2033.63
387.46	2086.88
387.67	2205.66
387.88	2195.42
388.10	2209.76
388.31	2209.76
388.52	2185.18
388.74	2242.53
388.95	2195.42
389.16	2176.99
389.38	2217.95
389.59	2250.72
389.80	2320.35
390.02	2289.63
390.23	2310.11
390.44	2297.82
390.66	2279.39
390.87	2230.24
391.08	2293.72
391.30	2396.12
391.51	2263.01
391.72	2361.31
391.94	2342.88
392.15	2328.54
392.36	2328.54
392.58	2273.25
392.79	2379.74
393.00	2406.36
393.22	2465.75
393.43	2400.22
393.64	2383.84
393.85	2465.75
394.07	2361.31
394.28	2334.68
394.49	2498.52
394.71	2463.71
394.92	2414.56
395.13	2375.64
395.35	2531.29
395.56	2422.75
395.77	2461.66
395.98	2455.51
396.20	2568.15
396.41	2439.13
396.62	2627.54
396.84	2527.19
397.05	2572.25
397.26	2547.67
397.47	2600.92
397.69	2457.56
397.90	2539.48
398.11	2607.06
398.32	2523.10
398.54	2523.10
398.75	2590.68
398.96	2611.16
399.18	2709.46
399.39	2605.02
399.60	2590.68
399.81	2668.50
400.03	2596.82
400.24	2723.80
400.45	2572.25
400.66	2807.77
400.88	2672.60
401.09	2727.89
401.30	2779.09
401.51	2717.65
401.73	2789.33
401.94	2795.48
402.15	2809.81
402.36	2656.22
402.58	2752.47
402.79	2699.22
403.00	2768.85
403.21	2813.91
403.43	2856.92
403.64	2842.58
403.85	2826.20
404.06	2840.53
404.27	2793.43
404.49	2875.35
404.70	2811.86
404.91	2920.40
405.12	2883.54
405.34	2815.96
405.55	2961.36
405.76	2867.16
405.97	2985.94
406.19	2877.40
406.40	2887.64
406.61	2959.31
406.82	2983.89
407.03	2856.92
407.25	3018.71
407.46	2936.79
407.67	3030.99
407.88	2992.08
408.09	2969.55
408.31	3067.86
408.52	3012.56
408.73	2973.65
408.94	3006.42
409.15	3094.48
409.37	3061.71
409.58	3004.37
409.79	3121.10
410.00	3108.82
410.21	3094.48
410.43	3143.63
410.64	3096.53
410.85	3170.26
411.06	3127.25
411.27	3225.55
411.48	3186.64
411.70	3248.08
411.91	3231.69
412.12	3131.34
412.33	3080.14
412.54	3233.74
412.76	3272.65
412.97	3309.52
413.18	3168.21
413.39	3237.84
413.60	3217.36
413.81	3274.70
414.03	3338.19
414.24	3403.72
414.45	3379.15
414.66	3235.79
414.87	3420.11
415.08	3293.13
415.30	3274.70
415.51	3391.44
415.72	3297.23
415.93	3377.10
416.14	3387.34
416.35	3364.81
416.56	3424.20
416.78	3407.82
416.99	3514.31
417.20	3356.62
417.41	3522.51
417.62	3463.12
417.83	3413.96
418.04	3567.56
418.26	3526.60
418.47	3549.13
418.68	3639.24
418.89	3401.68
419.10	3571.66
419.31	3502.03
419.52	3618.76
419.73	3528.65
419.95	3766.21
420.16	3686.34
420.37	3641.29
420.58	3676.10
420.79	3643.34
421.00	3686.34
421.21	3753.93
421.42	3688.39
421.63	3659.72
421.85	3649.48
422.06	3762.12
422.27	3678.15
422.48	3803.08
422.69	3794.89
422.90	3887.04
423.11	3833.80
423.32	3833.80
423.53	3938.24
423.75	3928.00
423.96	3981.25
424.17	3915.72
424.38	4016.07
424.59	4054.98
424.80	4212.67
425.01	3995.59
425.22	4136.90
425.43	3854.28
425.64	4171.71
425.85	4106.18
426.06	4134.85
426.28	4171.71
426.49	4222.91
426.70	4038.59
426.91	4222.91
427.12	4196.29
427.33	4179.90
427.54	4278.21
427.75	4171.71
427.96	4403.13
428.17	4360.13
428.38	4399.04
428.59	4548.54
428.80	4302.78
429.01	4396.99
429.23	4503.48
429.44	4655.03
429.65	4483.00
429.86	4575.16
430.07	4353.98
430.28	4566.97
430.49	4573.11
430.70	4620.22
430.91	4638.65
431.12	4581.31
431.33	4714.42
431.54	4716.47
431.75	4607.93
431.96	4743.10
432.17	4655.03
432.38	4638.65
432.59	4804.53
432.80	4741.05
433.01	4732.86
433.22	4835.25
433.43	4870.07
433.64	4913.08
433.85	4857.78
434.06	4857.78
434.27	4794.29
434.49	5001.14
434.70	4908.98
434.91	5060.53
435.12	5019.57
435.33	4992.95
435.54	5091.25
435.75	4962.23
435.96	5042.10
436.17	4911.03
436.38	5169.07
436.59	5078.96
436.80	5062.58
437.01	5201.84
437.22	5365.68
437.43	5205.94
437.64	5027.76
437.85	5294.00
438.06	5414.83
438.27	5189.55
438.48	5224.37
438.69	5287.86
438.90	5267.38
439.11	5136.31
439.32	5296.05
439.53	5296.05
439.74	5509.04
439.95	5466.03
440.16	5396.40
440.37	5404.59
440.57	5543.85
440.78	5453.74
440.99	5521.32
441.20	5496.75
441.41	5535.66
441.62	5490.60
441.83	5310.38
442.04	5789.61
442.25	5629.87
442.46	5484.46
442.67	5760.94
442.88	5984.16
443.09	5605.29
443.30	5769.13
443.51	5636.01
443.72	5805.99
443.93	5705.64
444.14	5969.83
444.35	5656.49
444.56	5801.90
444.77	6115.23
444.98	5701.54
445.19	5777.32
445.40	5844.90
445.61	5910.44
445.81	6025.12
446.02	5978.02
446.23	5978.02
446.44	5859.24
446.65	5996.45
446.86	5918.63
447.07	6037.41
447.28	6172.58
447.49	6057.89
447.70	6182.82
447.91	6055.84
448.12	6170.53
448.33	6254.50
448.54	6254.50
448.74	6088.61
448.95	6301.60
449.16	6035.36
449.37	6471.58
449.58	6260.64
449.79	6551.45
450.00	6303.65
450.21	6375.33
450.42	6717.34
450.63	6590.36
450.84	6352.80
451.05	6305.70
451.25	6561.69
451.46	6520.73
451.67	6559.64
451.88	6778.78
452.09	6553.50
452.30	6680.47
452.51	6627.23
452.72	6766.49
452.93	6850.46
453.13	6670.23
453.34	6639.51
453.55	6791.06
453.76	6870.94
453.97	7196.56
454.18	6825.88
454.39	7040.92
454.60	6952.85
454.81	6879.13
455.01	7157.65
455.22	6913.94
455.43	6999.96
455.64	7126.93
455.85	7202.71
456.06	7260.05
456.27	7247.76
456.48	7081.88
456.68	7255.95
456.89	7405.46
457.10	7462.80
457.31	7307.15
457.52	7335.82
457.73	7481.23
457.94	7604.11
458.14	7534.48
458.35	7716.75
458.56	7589.77
458.77	7591.82
458.98	7718.79
459.19	7597.96
459.39	7716.75
459.60	7767.95
459.81	7663.50
460.02	7962.50
460.23	7929.74
460.44	8083.33
460.65	8023.94
460.85	7960.45
461.06	8132.48
461.27	7802.76
461.48	8165.25
461.69	8288.13
461.89	8019.85
462.10	8300.42
462.31	8097.67
462.52	8206.21
462.73	8327.04
462.94	8527.74
463.14	8374.14
463.35	8302.47
463.56	8824.70
463.77	8714.11
463.98	8587.13
464.18	8630.14
464.39	8732.54
464.60	8843.13
464.81	8976.25
465.02	8865.66
465.23	9049.97
465.43	8904.57
465.64	9217.91
465.85	9031.54
466.06	8957.82
466.27	9332.59
466.47	9318.26
466.68	9107.32
466.89	9338.74
467.10	9588.59
467.30	9445.23
467.51	9527.15
467.72	9525.10
467.93	9400.18
468.14	9617.26
468.34	9760.62
468.55	9848.68
468.76	9858.92
468.97	9584.49
469.17	9885.55
469.38	9881.45
469.59	10188.64
469.80	9951.08
470.01	10061.67
470.21	9899.88
470.42	10276.71
470.63	10532.70
470.84	10127.21
471.04	10510.18
471.25	10348.39
471.46	10352.48
471.67	10606.43
471.87	10696.54
472.08	10889.05
472.29	11114.33
472.50	10553.18
472.70	10526.56
472.91	10729.31
473.12	11237.20
473.33	10991.45
473.53	11102.04
473.74	11288.40
473.95	11331.41
474.16	11456.34
474.36	11437.91
474.57	11550.54
474.78	11831.12
474.99	11423.57
475.19	11521.87
475.40	11972.43
475.61	11874.12
475.81	12113.74
476.02	12083.02
476.23	11972.43
476.44	12146.50
476.64	12246.85
476.85	12498.75
477.06	12627.78
477.27	12760.89
477.47	12584.77
477.68	12732.22
477.89	12728.13
478.09	12881.72
478.30	12791.61
478.51	12861.24
478.71	13123.38
478.92	13111.10
479.13	13033.27
479.34	13262.65
479.54	13418.29
479.75	13743.92
479.96	13496.11
480.16	13565.74
480.37	13420.34
480.58	13793.07
480.78	13901.61
480.99	14098.22
481.20	14020.39
481.41	14130.98
481.61	13936.43
481.82	14122.79
482.03	14145.32
482.23	14382.88
482.44	14507.81
482.65	14812.96
482.85	14706.46
483.06	14577.44
483.27	14712.61
483.47	14804.77
483.68	15036.19
483.89	14864.16
484.09	14923.55
484.30	15185.69
484.51	15236.89
484.71	15400.72
484.92	15535.89
485.13	15521.56
485.33	15648.53
485.54	15718.16
485.75	15763.22
485.95	15900.43
486.16	16031.50
486.37	16051.98
486.57	16008.97
486.78	15994.64
486.98	16117.51
487.19	16246.54
487.40	16398.09
487.60	16787.20
487.81	16742.14
488.02	16566.02
488.22	16518.92
488.43	16729.86
488.64	17063.68
488.84	17024.76
489.05	17020.67
489.25	17028.86
489.46	17358.58
489.67	17315.58
489.87	17491.70
490.08	17485.56
490.29	17590.00
490.49	17807.09
490.70	17518.32
490.90	17884.91
491.11	17968.88
491.32	17983.21
491.52	17884.91
491.73	18050.80
491.94	17899.25
492.14	18173.67
492.35	18284.26
492.55	18097.90
492.76	18280.17
492.97	18763.49
493.17	18695.91
493.38	18587.36
493.58	18648.80
493.79	18650.85
494.00	18777.83
494.20	18874.08
494.41	19050.21
494.61	19003.10
494.82	19238.62
495.02	19115.74
495.23	19261.15
495.44	19015.39
495.64	19545.81
495.85	19453.66
496.05	19828.43
496.26	19580.63
496.47	19574.49
496.67	19695.32
496.88	19920.59
497.08	19812.05
497.29	19805.91
497.49	19975.89
497.70	20080.33
497.91	20014.80
498.11	20205.26
498.32	20371.15
498.52	20393.67
498.73	20594.37
498.93	20514.50
499.14	20598.47
499.34	20479.69
499.55	20768.45
499.76	20643.52
499.96	21159.61
500.17	20842.18
500.37	20862.66
500.58	20944.58
500.78	20928.19
500.99	21145.28
501.19	21294.78
501.40	21038.78
501.60	21288.64
501.81	21112.51
502.02	21442.23
502.22	21178.04
502.43	21487.29
502.63	21792.44
502.84	21587.64
503.04	21698.23
503.25	21702.32
503.45	21651.13
503.66	21847.73
503.86	21757.62
504.07	22042.29
504.27	21731.00
504.48	22138.54
504.68	21982.90
504.89	22136.49
505.09	22400.68
505.30	22159.02
505.50	22259.37
505.71	22034.10
505.91	22455.98
506.12	22646.44
506.32	22394.54
506.53	22779.56
506.73	22556.33
506.94	22847.14
507.14	22724.26
507.35	22797.99
507.55	22763.17
507.76	22869.67
507.96	22714.02
508.17	22867.62
508.37	23017.12
508.58	22658.73
508.78	22855.33
508.99	23215.77
509.19	23043.74
509.40	23363.23
509.60	22931.11
509.81	23314.08
510.01	23142.05
510.22	23334.56
510.42	23088.80
510.63	23740.05
510.83	23428.76
511.04	23606.94
511.24	23453.34
511.44	23598.74
511.65	23541.40
511.85	23686.81
512.06	23735.96
512.26	23791.25
512.47	23946.90
512.67	23850.64
512.88	23905.94
513.08	23795.35
513.29	23944.85
513.49	23959.19
513.69	24211.09
513.90	24163.98
514.10	23905.94
514.31	24268.43
514.51	24241.81
514.72	23994.00
514.92	24069.78
515.13	24624.78
515.33	24407.69
515.53	24358.54
515.74	24270.48
515.94	24508.04
516.15	24551.05
516.35	24444.56
516.56	24647.30
516.76	24645.26
516.96	24585.86
517.17	24999.55
517.37	24735.37
517.58	24829.57
517.78	24503.95
517.99	24874.63
518.19	24860.29
518.39	25011.84
518.60	25155.20
518.80	24796.81
519.01	25073.28
519.21	25294.46
519.41	25241.21
519.62	25380.48
519.82	25298.56
520.03	25466.49
520.23	25820.79
520.43	25726.58
520.64	25718.39
520.84	25837.17
521.05	25728.63
521.25	25753.21
521.45	25929.33
521.66	25921.14
521.86	25624.18
522.07	25728.63
522.27	25861.75
522.47	25835.13
522.68	26193.52
522.88	26123.89
523.08	26541.68
523.29	26252.91
523.49	26281.58
523.70	26297.97
523.90	26099.31
524.10	26809.96
524.31	26316.40
524.51	26601.07
524.71	26916.45
524.92	26398.32
525.12	26900.07
525.33	26879.59
525.53	26889.83
525.73	26893.93
525.94	27014.76
526.14	26912.36
526.34	27158.11
526.55	26719.85
526.75	27156.07
526.95	27002.47
527.16	27158.11
527.36	27219.55
527.56	27350.62
527.77	27668.06
527.97	27514.46
528.17	27682.39
528.38	27569.76
528.58	27631.19
528.78	27684.44
528.99	27586.14
529.19	27956.82
529.39	27567.71
529.60	27946.58
529.80	27977.30
530.00	28012.12
530.21	28343.89
530.41	28083.80
530.61	27942.49
530.82	28483.15
531.02	28104.28
531.22	28302.93
531.43	28300.88
531.63	28710.47
531.83	28923.46
532.04	29013.57
532.24	28513.87
532.44	28735.05
532.64	28808.78
532.85	28810.82
533.05	28962.37
533.25	29193.79
533.46	29218.37
533.66	28835.40
533.86	29257.28
534.07	29038.15
534.27	29607.48
534.47	29396.54
534.67	29732.41
534.88	29345.34
535.08	29562.43
535.28	29642.30
535.49	29945.40
535.69	29644.35
535.89	30043.70
536.09	29849.14
536.30	29890.10
536.50	30342.70
536.70	30096.95
536.91	30125.62
537.11	30268.98
537.31	30115.38
537.51	30377.52
537.72	30389.81
537.92	30498.35
538.12	31014.44
538.32	30533.17
538.53	30791.21
538.73	30729.77
538.93	30856.75
539.13	30758.44
539.34	31008.29
539.54	31061.54
539.74	31477.28
539.94	31028.77
540.15	31159.84
540.35	30950.95
540.55	31026.73
540.75	31077.93
540.96	30903.85
541.16	31301.15
541.36	31188.52
541.56	31297.06
541.77	31622.69
541.97	31276.58
542.17	31616.54
542.37	31692.32
542.58	31645.21
542.78	31596.06
542.98	31737.37
543.18	31565.34
543.38	32044.57
543.59	32013.85
543.79	31983.13
543.99	31639.07
544.19	32075.29
544.40	31890.97
544.60	32278.04
544.80	31784.48
545.00	32263.70
545.20	32247.32
545.41	31835.67
545.61	32134.68
545.81	32318.99
546.01	32226.84
546.21	32351.76
546.42	31989.27
546.62	32753.16
546.82	32509.46
547.02	32818.70
547.22	32413.20
547.43	32443.92
547.63	32495.12
547.83	32728.59
548.03	32607.76
548.23	32572.94
548.44	32740.88
548.64	32546.32
548.84	32566.80
549.04	32937.48
549.24	32648.72
549.45	33033.74
549.65	32671.25
549.85	32900.62
550.05	32851.47
550.25	32896.52
550.45	32996.87
550.66	32763.40
550.86	32859.66
551.06	33144.33
551.26	33056.26
551.46	33019.40
551.66	32898.57
551.87	33160.71
552.07	33285.64
552.27	33207.81
552.47	33086.98
552.67	33416.71
552.87	33330.69
553.07	33371.65
553.28	33693.18
553.48	33269.25
553.68	33308.16
553.88	33680.89
554.08	33242.63
554.28	33603.07
554.48	33488.38
554.69	33533.44
554.89	33664.51
555.09	33422.85
555.29	33895.93
555.49	33426.95
555.69	33515.01
555.89	33764.86
556.10	34004.47
556.30	33588.74
556.50	33957.37
556.70	33721.85
556.90	33637.89
557.10	33662.46
557.30	33803.77
557.50	33961.47
557.70	33596.93
557.91	33871.36
558.11	34072.06
558.31	33836.54
558.51	33689.09
558.71	33891.83
558.91	34387.44
559.11	33873.40
559.31	33863.16
559.51	33680.89
559.72	33979.90
559.92	33777.15
560.12	33926.65
560.32	33924.60
560.52	33717.76
560.72	33990.14
560.92	34260.47
561.12	33814.01
561.32	34422.26
561.52	34049.53
561.72	34563.57
561.93	33750.52
562.13	34248.18
562.33	34123.26
562.53	34358.77
562.73	33932.79
562.93	34334.20
563.13	34405.88
563.33	33701.37
563.53	34438.64
563.73	33932.79
563.93	34405.88
564.13	34280.95
564.33	34053.62
564.53	33928.70
564.74	34635.25
564.94	33988.09
565.14	34483.70
565.34	34194.93
565.54	34323.96
565.74	34352.63
565.94	34694.64
566.14	34604.53
566.34	34211.32
566.54	34479.60
566.74	34203.13
566.94	34414.07
567.14	34582.00
567.34	34239.99
567.54	34414.07
567.74	34549.23
567.94	34401.78
568.14	34172.41
568.34	34299.38
568.54	34317.81
568.74	34362.87
568.94	34291.19
569.14	34637.30
569.34	34905.58
569.54	34549.23
569.75	34065.91
569.95	34350.58
570.15	34711.02
570.35	34579.95
570.55	34291.19
570.75	34360.82
570.95	34147.83
571.15	35184.10
571.35	34311.67
571.55	34680.30
571.75	34582.00
571.95	34885.10
572.15	34493.94
572.35	34633.20
572.55	34909.68
572.75	34655.73
572.95	34745.84
573.15	34774.51
573.35	34608.62
573.55	34559.47
573.75	34874.86
573.95	35114.47
574.15	34874.86
574.35	34680.30
574.55	35274.21
574.75	34704.88
574.95	34790.89
575.15	34930.16
575.34	35038.70
575.54	34766.32
575.74	35296.74
575.94	35220.97
576.14	34850.28
576.34	35192.30
576.54	35257.83
576.74	34811.37
576.94	35304.93
577.14	35239.40
577.34	35182.06
577.54	35325.41
577.74	35091.94
577.94	35110.38
578.14	35325.41
578.34	35411.43
578.54	34903.53
578.74	35096.04
578.94	35247.59
579.14	35087.85
579.34	35251.69
579.54	35601.89
579.74	35327.46
579.94	35618.27
580.13	35315.17
580.33	35530.21
580.53	35378.66
580.73	35700.19
580.93	35007.98
581.13	35853.79
581.33	35567.07
581.53	35747.29
581.73	35714.53
581.93	35896.80
582.13	35761.63
582.33	35816.93
582.53	35814.88
582.73	35567.07
582.92	35503.59
583.12	36201.94
583.32	35921.37
583.52	35642.85
583.72	35864.03
583.92	35581.41
584.12	35694.05
584.32	36406.74
584.52	35610.08
584.72	35694.05
584.92	35898.84
585.11	36120.02
585.31	35991.00
585.51	36165.08
585.71	35870.17
585.91	36187.61
586.11	35900.89
586.31	35784.16
586.51	35945.95
586.71	35878.36
586.91	36304.34
587.10	36113.88
587.30	36058.59
587.50	36255.19
587.70	36505.04
587.90	36382.16
588.10	36429.27
588.30	36517.33
588.50	36527.57
588.69	36113.88
588.89	36124.12
589.09	36441.56
589.29	36298.20
589.49	37096.91
589.69	36578.77
589.89	36380.12
590.08	36527.57
590.28	36576.72
590.48	36363.73
590.68	36330.97
590.88	36500.95
591.08	36275.67
591.28	36160.98
591.47	36715.98
591.67	36613.59
591.87	36369.88
592.07	36529.62
592.27	36873.68
592.47	36584.91
592.67	36754.90
592.86	36763.09
593.06	36386.26
593.26	36496.85
593.46	36552.15
593.66	36672.98
593.86	37000.65
594.05	36771.28
594.25	36863.44
594.45	36398.55
594.65	36638.16
594.85	36439.51
595.05	36697.55
595.24	36720.08
595.44	36324.82
595.64	36572.63
595.84	37031.37
596.04	36552.15
596.23	36705.74
596.43	37047.75
596.63	36826.57
596.83	36763.09
597.03	36713.94
597.22	37146.06
597.42	36842.96
597.62	36830.67
597.82	36910.54
598.02	36814.29
598.21	37094.86
598.41	36771.28
598.61	37033.42
598.81	36836.81
599.01	37289.42
599.20	37350.85
599.40	37234.12
599.60	37211.59
599.80	37193.16
600.00	37035.47
600.19	37500.36
600.39	36851.15
600.59	37240.26
600.79	37443.01
600.98	37502.40
601.18	37361.09
601.38	37369.29
601.58	37340.61
601.78	37414.34
601.97	37232.07
602.17	37639.62
602.37	37508.55
602.57	37492.16
602.76	37731.78
602.96	37209.54
603.16	37858.75
603.36	37572.03
603.55	37535.17
603.75	37567.94
603.95	37619.14
604.15	37651.91
604.34	37578.18
604.54	37692.86
604.74	37623.23
604.94	37766.59
605.13	37922.24
605.33	37893.57
605.53	37582.27
605.73	37807.55
605.92	37682.62
606.12	37705.15
606.32	37756.35
606.52	37604.80
606.71	37578.18
606.91	38151.61
607.11	37672.39
607.30	37569.99
607.50	37588.42
607.70	37635.52
607.90	37279.18
608.09	38028.73
608.29	38059.45
608.49	37807.55
608.68	37850.56
608.88	37834.17
609.08	37983.68
609.28	38014.40
609.47	37828.03
609.67	38034.88
609.87	37903.81
610.06	38223.29
610.26	37744.06
610.46	38077.88
610.66	37879.23
610.85	37875.13
611.05	37938.62
611.25	37846.46
611.44	37727.68
611.64	37965.24
611.84	37428.68
612.03	37789.12
612.23	37852.61
612.43	38092.22
612.62	37993.92
612.82	37995.96
613.02	37995.96
613.21	37733.82
613.41	37576.13
613.61	37938.62
613.80	37615.04
614.00	37916.09
614.20	37684.67
614.39	37791.17
614.59	37838.27
614.79	37842.37
614.98	38002.11
615.18	37666.24
615.38	37367.24
615.57	37559.75
615.77	38092.22
615.97	37475.78
616.16	37825.98
616.36	37891.52
616.56	37787.07
616.75	37686.72
616.95	37477.83
617.15	37535.17
617.34	37815.74
617.54	37758.40
617.74	37989.82
617.93	37416.39
618.13	37572.03
618.32	37955.00
618.52	37590.47
618.72	37604.80
618.91	37817.79
619.11	37238.22
619.31	37514.69
619.50	37600.71
619.70	37447.11
619.90	37000.65
620.09	37379.53
620.29	37144.01
620.48	37400.01
620.68	37803.46
620.88	37201.35
621.07	37086.67
621.27	37477.83
621.46	37260.74
621.66	37324.23
621.86	37141.96
622.05	37440.96
622.25	37393.86
622.44	37158.34
622.64	36849.10
622.84	37295.56
623.03	36881.87
623.23	37223.88
623.42	36924.88
623.62	37111.24
623.82	37569.99
624.01	37242.31
624.21	36980.17
624.40	36865.49
624.60	37131.72
624.80	36984.27
624.99	36959.69
625.19	36601.30
625.38	37082.57
625.58	36969.93
625.77	36838.86
625.97	37414.34
626.17	36421.08
626.36	36748.75
626.56	36816.33
626.75	36341.21
626.95	36941.26
627.14	36910.54
627.34	36920.78
627.54	36595.15
627.73	36806.09
627.93	36597.20
628.12	36601.30
628.32	36419.03
628.51	36931.02
628.71	36486.61
628.90	36845.01
629.10	36795.85
629.30	36828.62
629.49	36920.78
629.69	36767.18
629.88	36382.16
630.08	36314.58
630.27	36619.73
630.47	36779.47
630.66	36359.64
630.86	36779.47
631.05	36244.95
631.25	36666.83
631.44	36779.47
631.64	36353.49
631.84	36679.12
632.03	36806.09
632.23	36402.64
632.42	36672.98
632.62	36476.37
632.81	36455.89
633.01	36455.89
633.20	36416.98
633.40	36642.26
633.59	36638.16
633.79	36115.93
633.98	36050.39
634.18	36648.40
634.37	36429.27
634.57	36031.96
634.76	36402.64
634.96	36152.79
635.15	36380.12
635.35	36632.02
635.54	36365.78
635.74	36406.74
635.93	36158.94
636.13	36244.95
636.32	36406.74
636.52	35913.18
636.71	36345.30
636.91	36158.94
637.10	36232.66
637.30	36167.13
637.49	36169.18
637.69	36175.32
637.88	36345.30
638.08	36134.36
638.27	36384.21
638.46	36234.71
638.66	35997.15
638.85	35950.04
639.05	36369.88
639.24	35988.95
639.44	35935.71
639.63	36066.78
639.83	36027.87
640.02	36097.50
640.22	36255.19
640.41	36005.34
640.61	35618.27
640.80	35859.93
640.99	36097.50
641.19	36013.53
641.38	35941.85
641.58	36136.41
641.77	35907.04
641.97	36068.83
642.16	35976.67
642.36	36220.38
642.55	36304.34
642.74	35851.74
642.94	35952.09
643.13	36083.16
643.33	35943.90
643.52	36087.26
643.72	36120.02
643.91	35827.17
644.10	35540.45
644.30	36156.89
644.49	35769.82
644.69	36152.79
644.88	35931.61
645.08	36308.44
645.27	36103.64
645.46	35519.97
645.66	35939.80
645.85	35735.01
646.05	35476.96
646.24	36115.93
646.43	35728.86
646.63	35937.76
646.82	35831.26
647.02	35837.41
647.21	35847.64
647.40	36001.24
647.60	35773.92
647.79	35788.25
647.99	35941.85
648.18	35433.96
648.37	36556.24
648.57	35941.85
648.76	35843.55
648.96	35886.56
649.15	35794.40
649.34	35894.75
649.54	36249.05
649.73	35579.36
649.92	35821.02
650.12	35771.87
650.31	35640.80
650.51	35808.73
650.70	35861.98
650.89	35855.84
651.09	35796.45
651.28	35919.32
651.47	35730.91
651.67	35683.81
651.86	35898.84
652.06	35382.76
652.25	35878.36
652.44	35493.35
652.64	35788.25
652.83	35919.32
653.02	35448.29
653.22	35743.20
653.41	35579.36
653.60	35468.77
653.80	35636.70
653.99	35550.69
654.18	35694.05
654.38	35268.07
654.57	35663.33
654.76	35143.14
654.96	35665.38
655.15	35890.65
655.34	35323.36
655.54	35415.52
655.73	35349.99
655.92	35591.65
656.12	35436.00
656.31	35718.62
656.50	35372.52
656.70	35419.62
656.89	35214.82
657.08	35304.93
657.28	35890.65
657.47	35495.39
657.66	35818.97
657.86	35493.35
658.05	35479.01
658.24	35675.62
658.43	34670.06
658.63	35438.05
658.82	35419.62
659.01	35337.70
659.21	35507.68
659.40	35116.52
659.59	35208.68
659.79	35010.03
659.98	35599.84
660.17	35182.06
660.36	35296.74
660.56	35329.51
660.75	34960.87
660.94	35444.20
661.14	35171.82
661.33	35020.27
661.52	34522.61
661.71	35239.40
661.91	35020.27
662.10	34891.24
662.29	35309.03
662.49	34983.40
662.68	35028.46
662.87	35014.12
663.06	35229.16
663.26	35137.00
663.45	35216.87
663.64	34924.01
663.83	35358.18
664.03	35300.84
664.22	35124.71
664.41	34919.92
664.60	34801.13
664.80	35044.84
664.99	34831.85
665.18	34661.87
665.37	34866.67
665.57	34803.18
665.76	34989.55
665.95	35108.33
666.14	34651.63
666.34	34782.70
666.53	35012.07
666.72	35231.21
666.91	34684.40
667.11	34854.38
667.30	35151.34
667.49	34641.39
667.68	34729.45
667.87	34551.28
668.07	34778.61
668.26	34639.34
668.45	34516.47
668.64	34450.93
668.84	35030.51
669.03	34743.79
669.22	34518.51
669.41	34461.17
669.60	34495.99
669.80	34489.84
669.99	34647.54
670.18	34717.17
670.37	34395.64
670.57	34737.65
670.76	34280.95
670.95	34782.70
671.14	34483.70
671.33	34113.02
671.53	34680.30
671.72	34231.80
671.91	34440.69
672.10	34008.57
672.29	34256.37
672.48	33963.51
672.68	34369.01
672.87	34401.78
673.06	34043.38
673.25	33977.85
673.44	33887.74
673.64	34268.66
673.83	33965.56
674.02	34057.72
674.21	34192.89
674.40	34237.94
674.59	33746.43
674.79	34332.15
674.98	33916.41
675.17	34215.41
675.36	34119.16
675.55	33959.42
675.74	34090.49
675.94	33662.46
676.13	33859.07
676.32	33625.60
676.51	33859.07
676.70	33996.28
676.89	33803.77
677.08	33826.30
677.28	33672.70
677.47	33922.55
677.66	33977.85
677.85	33668.61
678.04	33920.51
678.23	33787.39
678.42	33934.84
678.62	33508.86
678.81	33830.40
679.00	33439.23
679.19	34127.35
679.38	33582.59
679.57	33629.69
679.76	33381.89
679.96	33797.63
680.15	33439.23
680.34	33650.17
680.53	33576.45
680.72	33367.55
680.91	33576.45
681.10	33486.34
681.29	33123.85
681.48	33355.27
681.68	33385.99
681.87	33484.29
682.06	33191.43
682.25	32955.91
682.44	33156.61
682.63	33351.17
682.82	32910.86
683.01	33342.98
683.20	32878.09
683.39	33502.72
683.59	32957.96
683.78	32722.44
683.97	33003.02
684.16	32652.81
684.35	32964.10
684.54	32886.28
684.73	32972.30
684.92	32661.01
685.11	33082.89
685.30	32718.35
685.49	33003.02
685.69	32638.48
685.88	32632.33
686.07	32431.63
686.26	32714.25
686.45	32415.25
686.64	32323.09
686.83	32550.42
687.02	32636.43
687.21	32560.66
687.40	32728.59
687.59	32570.90
687.78	32634.38
687.97	32448.02
688.16	32417.30
688.35	32439.82
688.54	32165.40
688.74	32255.51
688.93	32511.50
689.12	32179.73
689.31	32011.80
689.50	32552.46
689.69	32157.21
689.88	31917.59
690.07	32200.21
690.26	31913.50
690.45	32362.00
690.64	32314.90
690.83	32566.80
691.02	32200.21
691.21	31893.02
691.40	31870.49
691.59	32048.66
691.78	31661.60
691.97	31981.08
692.16	32036.38
692.35	32157.21
692.54	32024.09
692.73	32142.87
692.92	31583.77
693.11	31929.88
693.30	31604.25
693.49	31825.43
693.68	31749.66
693.87	31499.81
694.06	31352.35
694.25	31292.96
694.44	31307.30
694.63	31481.38
694.82	31213.09
695.01	31335.97
695.20	31362.59
695.39	31315.49
695.58	31184.42
695.77	30944.81
695.96	31002.15
696.15	30909.99
696.34	30842.41
696.53	31125.03
696.72	31233.57
696.91	31131.17
697.10	30987.82
697.29	30916.14
697.48	30981.67
697.67	31127.08
697.86	30846.51
698.05	30967.34
698.24	30707.24
698.43	30799.40
698.62	30770.73
698.81	30567.98
699.00	30750.25
699.19	30357.04
699.38	30676.52
699.57	30639.66
699.76	31022.63
699.95	30731.82
700.14	30684.72
700.32	30789.16
700.51	30619.18
700.70	30600.75
700.89	30332.47
701.08	30780.97
701.27	30271.03
701.46	30744.11
701.65	29843.00
701.84	30307.89
702.03	30363.18
702.22	30426.67
702.41	30463.54
702.60	30332.47
702.79	30201.40
702.98	30039.61
703.17	30348.85
703.35	30297.65
703.54	29902.39
703.73	30361.14
703.92	30277.17
704.11	30094.90
704.30	29922.87
704.49	30215.73
704.68	29816.38
704.87	30058.04
705.06	29908.54
705.25	29752.89
705.43	29539.90
705.62	29709.88
705.81	29693.50
706.00	29650.49
706.19	29412.93
706.38	29552.19
706.57	29519.42
706.76	29724.22
706.95	29578.81
707.14	29417.02
707.32	29500.99
707.51	29204.03
707.70	29685.31
707.89	29507.13
708.08	29441.60
708.27	29400.64
708.46	29347.39
708.65	29460.03
708.84	29003.33
709.02	29193.79
709.21	29341.25
709.40	29314.62
709.59	29249.09
709.78	28948.04
709.97	29255.23
710.16	29212.23
710.34	29085.25
710.53	28769.86
710.72	28853.83
710.91	29050.44
711.10	28911.17
711.29	29150.79
711.48	28814.92
711.66	28900.94
711.85	28634.70
712.04	28810.82
712.23	28927.56
712.42	28737.10
712.61	28364.37
712.80	28618.32
712.98	28368.46
713.17	28669.51
713.36	28440.14
713.55	28233.30
713.74	28571.21
713.93	28286.54
714.11	28358.22
714.30	28278.35
714.49	28241.49
714.68	28452.43
714.87	28403.28
715.06	28429.90
715.24	28335.70
715.43	28137.04
715.62	28073.56
715.81	27897.43
716.00	28585.55
716.18	28034.64
716.37	27962.97
716.56	27991.64
716.75	27897.43
716.94	27770.46
717.12	27932.25
717.31	27760.22
717.50	27895.38
717.69	27528.80
717.88	27491.93
718.06	27688.54
718.25	27854.42
718.44	27485.79
718.63	27172.45
718.82	27774.55
719.00	27401.82
719.19	27477.60
719.38	27590.24
719.57	27121.25
719.76	27231.84
719.94	27344.48
720.13	27307.62
720.32	27403.87
720.51	27416.16
720.69	27016.80
720.88	27266.66
721.07	27039.33
721.26	26601.07
721.44	27018.85
721.63	27045.48
721.82	26838.63
722.01	26639.98
722.20	26992.23
722.38	26717.80
722.57	26531.44
722.76	26648.17
722.95	26596.97
723.13	26586.73
723.32	26642.03
723.51	26048.11
723.70	26402.41
723.88	26218.10
724.07	26166.90
724.26	26373.74
724.44	26103.41
724.63	26566.25
724.82	26164.85
725.01	26330.73
725.19	26230.38
725.38	26039.92
725.57	25900.66
725.76	26005.11
725.94	25964.15
726.13	26039.92
726.32	25833.08
726.51	25874.04
726.69	25894.52
726.88	25611.90
727.07	25964.15
727.25	25466.49
727.44	25865.85
727.63	25908.85
727.82	25450.11
728.00	25878.13
728.19	25523.83
728.38	26105.46
728.56	25249.41
728.75	25927.28
728.94	25495.16
729.12	25656.95
729.31	25560.70
729.50	25831.03
729.69	25935.48
729.87	25532.03
730.06	25570.94
730.25	25685.62
730.43	25624.18
730.62	25501.31
730.81	25474.68
730.99	25790.07
731.18	25345.66
731.37	25343.61
731.55	25403.00
731.74	25702.01
731.93	25415.29
732.11	25300.61
732.30	25286.27
732.49	25323.13
732.67	25060.99
732.86	25329.28
733.05	25032.32
733.23	25065.09
733.42	25245.31
733.61	25058.95
733.79	24977.03
733.98	24948.36
734.17	25065.09
734.35	24882.82
734.54	25011.84
734.73	25218.69
734.91	24737.41
735.10	24751.75
735.29	24968.84
735.47	24831.62
735.66	25015.94
735.84	24759.94
736.03	25007.75
736.22	25054.85
736.40	24921.73
736.59	24901.25
736.78	24974.98
736.96	24673.93
737.15	24604.30
737.33	24571.53
737.52	24946.31
737.71	24530.57
737.89	24462.99
738.08	24618.63
738.27	24366.73
738.45	24639.11
738.64	24759.94
738.82	24501.90
739.01	24344.20
739.20	24336.01
739.38	24297.10
739.57	24409.74
739.75	24522.38
739.94	24395.40
740.13	24295.05
740.31	24438.41
740.50	24239.76
740.68	24299.15
740.87	24333.96
741.06	24260.24
741.24	23916.18
741.43	24190.61
741.61	24297.10
741.80	24073.87
741.99	24008.34
742.17	23975.57
742.36	24084.11
742.54	23916.18
742.73	23649.94
742.91	23750.29
743.10	24147.60
743.29	24084.11
743.47	23932.56
743.66	24299.15
743.84	24252.05
744.03	23936.66
744.21	23828.12
744.40	23729.81
744.59	23940.75
744.77	23799.44
744.96	23731.86
745.14	23582.36
745.33	23682.71
745.51	23537.30
745.70	23660.18
745.88	23662.23
746.07	23731.86
746.26	23334.56
746.44	23371.42
746.63	23537.30
746.81	23467.67
747.00	23379.61
747.18	23498.39
747.37	23588.50
747.55	23336.60
747.74	23500.44
747.92	23230.11
748.11	23140.00
748.29	23248.54
748.48	23445.15
748.66	23279.26
748.85	23576.22
749.03	23293.60
749.22	23277.21
749.41	23330.46
749.59	23248.54
749.78	23305.88
749.96	23183.01
750.15	22834.85
750.33	23084.70
750.52	22929.06
750.70	22853.28
750.89	23125.66
751.07	22820.52
751.26	22861.48
751.44	22734.50
751.63	22605.48
751.81	22554.28
752.00	22611.62
752.18	22800.04
752.37	22572.71
752.55	22404.78
752.74	22795.94
752.92	22578.86
753.10	22554.28
753.29	22646.44
753.47	22599.34
753.66	22632.10
753.84	22468.27
754.03	22365.87
754.21	22288.04
754.40	22619.81
754.58	22435.50
754.77	22275.76
754.95	22353.58
755.14	22671.01
755.32	22455.98
755.51	22255.28
755.69	22179.50
755.88	22269.61
756.06	22177.45
756.24	22025.90
756.43	22234.80
756.61	21941.94
756.80	22210.22
756.98	22120.11
757.17	22312.62
757.35	22175.41
757.54	21984.94
757.72	21929.65
757.90	21751.48
758.09	21788.34
758.27	22050.48
758.46	21683.89
758.64	21839.54
758.83	21825.20
759.01	21857.97
759.19	21737.14
759.38	21843.63
759.56	21878.45
759.75	21855.92
759.93	21606.07
760.12	21610.17
760.30	21397.18
760.48	21561.02
760.67	21972.66
760.85	21702.32
761.04	21978.80
761.22	21784.24
761.40	21694.13
761.59	21464.76
761.77	21370.55
761.96	21464.76
762.14	21448.38
762.32	21423.80
762.51	21395.13
762.69	21540.54
762.88	21173.95
763.06	21210.81
763.24	21196.48
763.43	21309.11
763.61	21520.06
763.80	21352.12
763.98	21520.06
764.16	21157.57
764.35	20811.46
764.53	21087.93
764.72	21092.03
764.90	21243.58
765.08	20899.52
765.27	21223.10
765.45	20872.90
765.63	20850.37
765.82	20838.08
766.00	20717.25
766.18	21030.59
766.37	20803.27
766.55	20682.44
766.74	20721.35
766.92	20874.95
767.10	20643.52
767.29	20653.76
767.47	20524.74
767.65	20752.07
767.84	20649.67
768.02	20553.41
768.20	20600.52
768.39	20461.26
768.57	20313.80
768.75	20053.71
768.94	20440.78
769.12	20297.42
769.30	20233.93
769.49	20278.99
769.67	20225.74
769.85	19943.12
770.04	20235.98
770.22	19922.64
770.40	19867.34
770.59	19926.74
770.77	20225.74
770.95	20098.77
771.14	20162.25
771.32	19986.13
771.50	19824.34
771.69	20055.76
771.87	19988.18
772.05	20004.56
772.24	19797.71
772.42	19551.96
772.60	19766.99
772.78	19824.34
772.97	19775.19
773.15	19846.87
773.33	19666.64
773.52	19764.95
773.70	19742.42
773.88	19816.15
774.07	19893.97
774.25	19779.28
774.43	19697.36
774.61	19930.83
774.80	20027.09
774.98	19783.38
775.16	19771.09
775.34	19896.02
775.53	19711.70
775.71	19697.36
775.89	19570.39
776.08	19848.91
776.26	19668.69
776.44	19853.01
776.62	19635.92
776.81	19574.49
776.99	19775.19
777.17	19783.38
777.35	19427.03
777.54	19877.58
777.72	19660.50
777.90	19603.16
778.08	19926.74
778.27	19965.65
778.45	19752.66
778.63	19848.91
778.81	19883.73
779.00	19900.11
779.18	19773.14
779.36	19861.20
779.54	19807.95
779.73	19816.15
779.91	19842.77
780.09	19875.54
780.27	20172.49
780.46	19900.11
780.64	20088.53
780.82	19779.28
781.00	19853.01
781.19	19932.88
781.37	20031.18
781.55	19627.73
781.73	19934.93
781.91	19941.07
782.10	19672.79
782.28	19631.83
782.46	19918.54
782.64	19939.02
782.82	19941.07
783.01	19865.30
783.19	20074.19
783.37	20002.51
783.55	19850.96
783.74	20025.04
783.92	19803.86
784.10	19918.54
784.28	19834.58
784.46	19865.30
784.64	19685.08
784.83	19848.91
785.01	20033.23
785.19	19601.11
785.37	19951.31
785.55	19572.44
785.74	19728.08
785.92	19797.71
786.10	19668.69
786.28	19650.26
786.46	19590.87
786.64	19424.98
786.83	19570.39
787.01	19633.88
787.19	19486.42
787.37	19369.69
787.55	19531.48
787.74	19478.23
787.92	19592.92
788.10	19316.44
788.28	19285.72
788.46	19554.01
788.64	19418.84
788.82	19498.71
789.01	19287.77
789.19	19498.71
789.37	19322.59
789.55	19353.30
789.73	19136.22
789.91	19128.03
790.09	19007.20
790.28	19109.60
790.46	19250.91
790.64	19064.54
790.82	19076.83
791.00	18826.98
791.18	19039.97
791.36	19156.70
791.55	18915.04
791.73	18788.07
791.91	18753.25
792.09	18904.80
792.27	18646.76
792.45	18865.89
792.63	18769.63
792.81	18839.26
793.00	18763.49
793.18	18386.66
793.36	18734.82
793.54	18738.91
793.72	18224.87
793.90	18517.73
794.08	18405.10
794.26	18405.10
794.44	18349.80
794.62	18239.21
794.81	18552.55
794.99	18161.39
795.17	18188.01
795.35	18343.66
795.53	18364.14
795.71	17977.07
795.89	17864.43
796.07	18038.51
796.25	18011.89
796.43	17827.57
796.61	17776.37
796.80	17704.69
796.98	17688.31
797.16	17741.55
797.34	17985.26
797.52	17690.35
797.70	17786.61
797.88	17848.05
798.06	17553.14
798.24	17401.59
798.42	17651.44
798.60	17540.85
798.78	17571.57
798.96	17340.15
799.14	17192.70
799.32	17362.68
799.51	17176.31
799.69	17315.58
799.87	17141.50
800.05	17067.77
800.23	17106.68
800.41	16807.68
800.59	17399.54
800.77	16977.66
800.95	16914.17
801.13	16893.69
801.31	16731.90
801.49	16977.66
801.67	16975.61
801.85	16856.83
802.03	16551.68
802.21	16793.34
802.39	16596.74
802.57	16645.89
802.75	16424.71
802.93	16477.96
803.11	16539.40
803.29	16402.18
803.47	16494.34
803.65	16449.28
803.83	16269.06
804.01	16144.14
804.19	16291.59
804.37	16092.94
804.55	16236.30
804.73	16189.19
804.91	16109.32
805.09	15949.58
805.27	16123.66
805.45	16082.70
805.63	16199.43
805.81	16101.13
805.99	16015.12
806.17	16131.85
806.35	16004.88
806.53	15775.50
806.71	16064.27
806.89	15773.46
807.07	15642.39
807.25	15785.74
807.43	15685.39
807.61	15626.00
807.79	15838.99
807.97	15617.81
808.15	15521.56
808.33	15394.58
808.51	15443.73
808.69	15511.32
808.87	15494.93
809.05	15169.30
809.23	15126.30
809.41	15140.63
809.59	15218.46
809.77	15494.93
809.95	15347.48
810.13	14995.23
810.31	15173.40
810.49	15365.91
810.67	15077.15
810.84	14843.68
811.02	15048.47
811.20	14950.17
811.38	15044.38
811.56	14909.21
811.74	14898.97
811.92	14858.01
812.10	14837.53
812.28	14915.36
812.46	14731.04
812.64	14720.80
812.82	14526.24
813.00	14577.44
813.18	14671.65
813.36	14677.79
813.53	14466.85
813.71	14657.31
813.89	14419.75
814.07	14610.21
814.25	14726.94
814.43	14563.11
814.61	14432.04
814.79	14509.86
814.97	14530.34
815.15	14399.27
815.33	14245.67
815.50	13936.43
815.68	14292.77
815.86	14473.00
816.04	14139.18
816.22	14065.45
816.40	14184.23
816.58	14014.25
816.76	14067.50
816.94	14110.50
817.11	14010.15
817.29	14071.59
817.47	14087.98
817.65	14104.36
817.83	13926.19
818.01	13688.62
818.19	13743.92
818.37	13791.02
818.54	13776.69
818.72	13618.99
818.90	13795.12
819.08	13711.15
819.26	13489.97
819.44	13563.70
819.62	13594.42
819.80	13481.78
819.97	13399.86
820.15	13453.11
820.33	13655.86
820.51	13389.62
820.69	13389.62
820.87	13514.55
821.05	13528.88
821.22	13645.62
821.40	13512.50
821.58	13285.17
821.76	13274.93
821.94	13223.73
822.12	13428.53
822.29	13346.61
822.47	13299.51
822.65	13371.19
822.83	13154.10
823.01	13119.29
823.19	12971.83
823.36	13346.61
823.54	13072.18
823.72	13260.60
823.90	13010.75
824.08	12975.93
824.25	12828.48
824.43	12922.68
824.61	12928.83
824.79	13043.51
824.97	12945.21
825.15	13059.90
825.32	12951.35
825.50	12973.88
825.68	12900.16
825.86	13063.99
826.04	12851.00
826.21	12758.85
826.39	12736.32
826.57	12797.76
826.75	12640.06
826.93	12601.15
827.10	12523.33
827.28	12744.51
827.46	12697.41
827.64	12711.74
827.81	12615.49
827.99	12552.00
828.17	12560.19
828.35	12537.66
828.53	12418.88
828.70	12435.27
828.88	12595.01
829.06	12513.09
829.24	12621.63
829.41	12377.92
829.59	12369.73
829.77	12478.27
829.95	12373.83
830.12	12351.30
830.30	12451.65
830.48	12361.54
830.66	12062.54
830.84	12341.06
831.01	12308.29
831.19	11931.47
831.37	12052.30
831.55	12212.04
831.72	11978.57
831.90	12336.96
832.08	12269.38
832.25	12056.39
832.43	11980.62
832.61	11929.42
832.79	11999.05
832.96	11898.70
833.14	11947.85
833.32	12005.19
833.50	12054.34
833.67	12013.38
833.85	11982.67
834.03	11847.50
834.20	11716.43
834.38	11820.88
834.56	11900.75
834.74	11591.50
834.91	11857.74
835.09	11935.56
835.27	11695.95
835.44	11681.61
835.62	11523.92
835.80	11685.71
835.98	11575.12
836.15	11675.47
836.33	11671.37
836.51	11749.20
836.68	11464.53
836.86	11499.34
837.04	11607.89
837.21	11538.26
837.39	11530.06
837.57	11601.74
837.75	11611.98
837.92	11351.89
838.10	11325.27
838.28	11102.04
838.45	11499.34
838.63	11239.25
838.81	11452.24
838.98	11530.06
839.16	11272.02
839.34	11345.75
839.51	11079.51
839.69	10981.21
839.87	11294.55
840.04	11157.33
840.22	11419.47
840.40	11173.72
840.57	10962.78
840.75	11257.68
840.93	11083.61
841.10	11126.61
841.28	11077.46
841.46	11151.19
841.63	11003.74
841.81	11009.88
841.98	11054.94
842.16	11104.09
842.34	10944.34
842.51	11112.28
842.69	11112.28
842.87	11038.55
843.04	11126.61
843.22	10921.82
843.40	10848.09
843.57	10911.58
843.75	10825.56
843.92	11061.08
844.10	10913.63
844.28	10876.76
844.45	11067.22
844.63	10905.43
844.81	10784.60
844.98	10973.02
845.16	10637.15
845.33	10827.61
845.51	10612.57
845.69	10733.40
845.86	10655.58
846.04	10469.22
846.21	10631.01
846.39	10594.14
846.57	10600.29
846.74	10405.73
846.92	10473.31
847.09	10631.01
847.27	10598.24
847.45	10624.86
847.62	10559.33
847.80	10536.80
847.97	10467.17
848.15	10379.11
848.32	10397.54
848.50	10362.72
848.68	10280.80
848.85	10321.76
849.03	10327.91
849.20	10481.50
849.38	10426.21
849.56	10426.21
849.73	10106.73
849.91	10274.66
850.08	10268.52
850.26	10366.82
850.43	10461.02
850.61	10194.79
850.78	10192.74
850.96	10030.95
851.14	10192.74
851.31	10178.40
851.49	10207.08
851.66	10239.84
851.84	10092.39
852.01	10149.73
852.19	10231.65
852.36	10008.42
852.54	10172.26
852.71	10104.68
852.89	10106.73
853.07	9885.55
853.24	9906.02
853.42	10033.00
853.59	9916.26
853.77	10016.62
853.94	9906.02
854.12	10067.81
854.29	9729.90
854.47	9893.74
854.64	10047.33
854.82	9830.25
854.99	9957.22
855.17	9736.04
855.34	9729.90
855.52	9961.32
855.69	9938.79
855.87	9867.11
856.04	9742.19
856.22	9721.71
856.39	9652.08
856.57	9766.76
856.74	9801.58
856.92	9576.30
857.09	9621.36
857.27	9504.62
857.44	9686.89
857.62	9664.36
857.79	9672.56
857.97	9680.75
858.14	9621.36
858.32	9592.69
858.49	9688.94
858.67	9699.18
858.84	9514.86
859.02	9582.45
859.19	9406.32
859.37	9389.94
859.54	9400.18
859.72	9402.22
859.89	9580.40
860.06	9369.46
860.24	9396.08
860.41	9430.90
860.59	9334.64
860.76	9566.06
860.94	9322.35
861.11	9426.80
861.29	9342.83
861.46	9400.18
861.64	9232.24
861.81	9238.39
861.98	9254.77
862.16	9242.48
862.33	9273.20
862.51	9146.23
862.68	9258.87
862.86	9142.13
863.03	9064.31
863.21	9095.03
863.38	9222.00
863.55	9092.98
863.73	9158.52
863.90	9170.80
864.08	9252.72
864.25	8974.20
864.43	9187.19
864.60	8996.73
864.77	8947.58
864.95	9017.21
865.12	9002.87
865.30	9019.25
865.47	9078.65
865.64	9027.45
865.82	8988.53
865.99	9088.89
866.17	8955.77
866.34	8875.90
866.51	8836.99
866.69	8863.61
866.86	8931.19
867.04	8927.10
867.21	8929.14
867.38	8826.75
867.56	8722.30
867.73	8742.78
867.91	8789.88
868.08	8712.06
868.25	8931.19
868.43	8613.76
868.60	8722.30
868.78	8636.28
868.95	8771.45
869.12	8669.05
869.30	8601.47
869.47	8585.08
869.64	8732.54
869.82	8583.04
869.99	8544.13
870.16	8675.20
870.34	8515.45
870.51	8499.07
870.69	8370.05
870.86	8435.58
871.03	8437.63
871.21	8419.20
871.38	8546.17
871.55	8279.94
871.73	8441.73
871.90	8191.88
872.07	8267.65
872.25	8253.31
872.42	8449.92
872.59	8269.70
872.77	8230.79
872.94	8292.23
873.11	8335.23
873.29	8296.32
873.46	8099.72
873.63	8275.84
873.81	8167.30
873.98	8089.48
874.15	8337.28
874.33	8036.23
874.50	8056.71
874.67	8200.07
874.85	8007.56
875.02	8034.18
875.19	8038.28
875.37	8038.28
875.54	7878.54
875.71	8025.99
875.88	7892.87
876.06	7909.26
876.23	7970.69
876.40	7899.02
876.58	7892.87
876.75	7886.73
876.92	7802.76
877.10	7962.50
877.27	7679.88
877.44	7853.96
877.61	7688.07
877.79	7841.67
877.96	7755.66
878.13	7690.12
878.31	7579.53
878.48	7585.68
878.65	7729.03
878.82	7583.63
879.00	7616.40
879.17	7589.77
879.34	7827.34
879.51	7579.53
879.69	7550.86
879.86	7296.91
880.03	7561.10
880.21	7540.62
880.38	7522.19
880.55	7720.84
880.72	7536.52
880.90	7477.13
881.07	7423.89
881.24	7489.42
881.41	7514.00
881.59	7358.35
881.76	7317.39
881.93	7571.34
882.10	7284.62
882.28	7323.54
882.45	7446.41
882.62	7415.69
882.79	7462.80
882.96	7239.57
883.14	7475.09
883.31	7337.87
883.48	7438.22
883.65	7391.12
883.83	7415.69
884.00	7192.47
884.17	7290.77
884.34	7352.21
884.51	7210.90
884.69	7206.80
884.86	7258.00
885.03	7210.90
885.20	7155.60
885.38	7149.46
885.55	7202.71
885.72	7145.36
885.89	7161.75
886.06	7151.51
886.24	7301.01
886.41	7208.85
886.58	7151.51
886.75	7116.69
886.92	7096.21
887.10	7159.70
887.27	7008.15
887.44	7022.48
887.61	7131.03
887.78	7114.64
887.95	7100.31
888.13	7149.46
888.30	7018.39
888.47	7116.69
888.64	7128.98
888.81	7083.92
888.99	7028.63
889.16	6852.50
889.33	6967.19
889.50	6852.50
889.67	6977.43
889.84	6811.54
890.01	6952.85
890.19	6895.51
890.36	6985.62
890.53	6879.13
890.70	6778.78
890.87	6971.29
891.04	6766.49
891.22	6858.65
891.39	6885.27
891.56	6928.28
891.73	6686.62
891.90	6737.82
892.07	6721.43
892.24	6829.98
892.42	6815.64
892.59	6838.17
892.76	6668.19
892.93	6829.98
893.10	6725.53
893.27	6850.46
893.44	6616.99
893.61	6606.75
893.79	6791.06
893.96	6686.62
894.13	6700.95
894.30	6703.00
894.47	6729.63
894.64	6727.58
894.81	6610.84
894.98	6680.47
895.15	6465.44
895.33	6690.71
895.50	6614.94
895.67	6487.96
895.84	6506.40
896.01	6834.07
896.18	6690.71
896.35	6596.51
896.52	6545.31
896.69	6449.05
896.86	6635.42
897.04	6549.40
897.21	6651.80
897.38	6576.03
897.55	6541.21
897.72	6473.63
897.89	6490.01
898.06	6551.45
898.23	6522.78
898.40	6721.43
898.57	6494.11
898.74	6414.24
898.91	6463.39
899.08	6428.57
899.26	6385.57
899.43	6283.17
899.60	6373.28
899.77	6442.91
899.94	6475.68
900.11	6580.12
900.28	6354.85
900.45	6453.15
900.62	6428.57
900.79	6481.82
900.96	6307.74
901.13	6408.09
901.30	6496.16
901.47	6340.51
901.64	6256.54
901.81	6320.03
901.98	6414.24
902.15	6477.73
902.32	6373.28
902.49	6547.36
902.66	6447.01
902.83	6453.15
903.01	6379.42
903.18	6528.92
903.35	6248.35
903.52	6408.09
903.69	6393.76
903.86	6399.90
904.03	6424.48
904.20	6287.26
904.37	6434.72
904.54	6344.61
904.71	6309.79
904.88	6358.94
905.05	6205.35
905.22	6317.98
905.39	6209.44
905.56	6201.25
905.73	6352.80
905.90	6350.75
906.07	6229.92
906.24	6344.61
906.41	6238.11
906.58	6236.06
906.75	6371.23
906.92	6219.68
907.09	6270.88
907.26	6246.30
907.43	6186.91
907.60	6244.26
907.77	6399.90
907.93	6281.12
908.10	6195.11
908.27	6358.94
908.44	6264.74
908.61	6201.25
908.78	6252.45
908.95	6332.32
909.12	6346.66
909.29	6176.67
909.46	6119.33
909.63	6201.25
909.80	6363.04
909.97	6119.33
910.14	6080.42
910.31	6223.78
910.48	6174.63
910.65	6084.52
910.82	6207.39
910.99	6092.71
911.16	6012.84
911.33	6070.18
911.50	6160.29
911.66	6127.52
911.83	6311.84
912.00	5980.07
912.17	5994.40
912.34	5992.36
912.51	6029.22
912.68	6029.22
912.85	5984.16
913.02	6055.84
913.19	5926.82
913.36	5969.83
913.53	5973.92
913.70	6076.32
913.86	5982.12
914.03	6031.27
914.20	5889.96
914.37	5986.21
914.54	6066.08
914.71	5988.26
914.88	5935.01
915.05	5885.86
915.22	5732.26
915.39	5941.16
915.55	5939.11
915.72	5793.70
915.89	5744.55
916.06	5703.59
916.23	5816.23
916.40	5758.89
916.57	5664.68
916.74	5746.60
916.91	5838.76
917.07	5732.26
917.24	5652.39
917.41	5736.36
917.58	5730.22
917.75	5799.85
917.92	5492.65
918.09	5615.53
918.26	5558.19
918.42	5681.07
918.59	5584.81
918.76	5570.48
918.93	5470.12
919.10	5506.99
919.27	5574.57
919.44	5617.58
919.60	5506.99
919.77	5496.75
919.94	5353.39
920.11	5351.34
920.28	5466.03
920.45	5408.69
920.61	5353.39
920.78	5330.86
920.95	5390.25
921.12	5525.42
921.29	5318.57
921.46	5322.67
921.62	5257.14
921.79	5283.76
921.96	5312.43
922.13	5277.62
922.30	5191.60
922.47	5222.32
922.63	5287.86
922.80	5148.59
922.97	5132.21
923.14	5146.55
923.31	5224.37
923.47	5048.24
923.64	5345.20
923.81	5023.67
923.98	5134.26
924.15	5072.82
924.32	5076.91
924.48	5050.29
924.65	5140.40
924.82	5195.70
924.99	4925.36
925.15	4861.88
925.32	4992.95
925.49	4890.55
925.66	4943.80
925.83	4964.28
925.99	4810.68
926.16	4890.55
926.33	4976.56
926.50	4763.58
926.67	4743.10
926.83	4806.58
927.00	4663.22
927.17	4683.70
927.34	4677.56
927.50	4749.24
927.67	4796.34
927.84	4698.04
928.01	4603.83
928.17	4618.17
928.34	4677.56
928.51	4646.84
928.68	4609.98
928.84	4528.06
929.01	4599.74
929.18	4474.81
929.35	4556.73
929.51	4509.63
929.68	4468.67
929.85	4493.24
930.02	4556.73
930.18	4415.42
930.35	4497.34
930.52	4429.76
930.69	4480.96
930.85	4372.41
931.02	4278.21
931.19	4407.23
931.36	4304.83
931.52	4325.31
931.69	4372.41
931.86	4368.32
932.02	4179.90
932.19	4251.58
932.36	4298.69
932.53	4235.20
932.69	4059.07
932.86	4179.90
933.03	4163.52
933.19	4093.89
933.36	4165.57
933.53	4108.23
933.70	4028.35
933.86	4159.42
934.03	4050.88
934.20	3991.49
934.36	4069.31
934.53	3919.81
934.70	3868.61
934.86	3950.53
935.03	3893.19
935.20	3936.20
935.36	3837.89
935.53	3790.79
935.70	3862.47
935.86	3768.26
936.03	3827.65
936.20	3725.26
936.36	3692.49
936.53	3680.20
936.70	3694.54
936.86	3647.43
937.03	3536.84
937.20	3520.46
937.36	3602.38
937.53	3534.79
937.70	3459.02
937.86	3508.17
938.03	3512.27
938.20	3454.92
938.36	3514.31
938.53	3364.81
938.70	3311.57
938.86	3456.97
939.03	3233.74
939.20	3235.79
939.36	3239.89
939.53	3260.37
939.70	3383.24
939.86	3196.88
940.03	3186.64
940.19	3123.15
940.36	3137.49
940.53	3139.54
940.69	3114.96
940.86	3117.01
941.03	2975.70
941.19	2998.23
941.36	2992.08
941.52	3000.27
941.69	2932.69
941.86	3063.76
942.02	2940.88
942.19	2906.07
942.35	3002.32
942.52	2807.77
942.69	2801.62
942.85	2797.53
943.02	2822.10
943.18	2893.78
943.35	2744.28
943.52	2760.66
943.68	2834.39
943.85	2770.90
944.01	2781.14
944.18	2611.16
944.35	2772.95
944.51	2664.41
944.68	2676.70
944.84	2584.54
945.01	2631.64
945.17	2662.36
945.34	2609.11
945.51	2662.36
945.67	2562.01
945.84	2645.98
946.00	2584.54
946.17	2498.52
946.33	2559.96
946.50	2607.06
946.67	2586.58
946.83	2512.86
947.00	2660.31
947.16	2578.39
947.33	2502.62
947.49	2688.98
947.66	2494.43
947.82	2521.05
947.99	2576.34
948.16	2613.21
948.32	2404.32
948.49	2576.34
948.65	2578.39
948.82	2576.34
948.98	2531.29
949.15	2486.23
949.31	2527.19
949.48	2465.75
949.64	2484.19
949.81	2537.43
949.97	2576.34
950.14	2486.23
950.30	2406.36
950.47	2510.81
950.63	2516.95
950.80	2500.57
950.96	2531.29
951.13	2582.49
951.30	2498.52
951.46	2519.00
951.63	2568.15
951.79	2492.38
951.96	2469.85
952.12	2502.62
952.29	2494.43
952.45	2529.24
952.62	2572.25
952.78	2510.81
952.94	2572.25
953.11	2471.90
953.27	2455.51
953.44	2527.19
953.60	2553.82
953.77	2508.76
953.93	2553.82
954.10	2537.43
954.26	2471.90
954.43	2492.38
954.59	2512.86
954.76	2451.42
954.92	2519.00
955.09	2469.85
955.25	2451.42
955.42	2480.09
955.58	2506.71
955.75	2473.95
955.91	2416.60
956.07	2437.08
956.24	2494.43
956.40	2500.57
956.57	2512.86
956.73	2351.07
956.90	2478.04
957.06	2400.22
957.23	2504.67
957.39	2428.89
957.56	2523.10
957.72	2318.30
957.88	2367.45
958.05	2451.42
958.21	2514.91
958.38	2408.41
958.54	2488.28
958.71	2492.38
958.87	2410.46
959.03	2394.08
959.20	2504.67
959.36	2404.32
959.53	2430.94
959.69	2426.84
959.85	2406.36
960.02	2422.75
960.18	2381.79
960.35	2402.27
960.51	2475.99
960.68	2437.08
960.84	2435.03
961.00	2396.12
961.17	2394.08
961.33	2443.23
961.50	2437.08
961.66	2349.02
961.82	2430.94
961.99	2406.36
962.15	2463.71
962.31	2447.32
962.48	2287.58
962.64	2385.88
962.81	2408.41
962.97	2336.73
963.13	2367.45
963.30	2398.17
963.46	2480.09
963.62	2318.30
963.79	2414.56
963.95	2396.12
964.12	2252.77
964.28	2408.41
964.44	2332.64
964.61	2308.06
964.77	2387.93
964.93	2437.08
965.10	2344.92
965.26	2297.82
965.42	2377.69
965.59	2285.53
965.75	2367.45
965.92	2439.13
966.08	2340.83
966.24	2357.21
966.41	2301.92
966.57	2299.87
966.73	2441.18
966.90	2299.87
967.06	2338.78
967.22	2318.30
967.39	2361.31
967.55	2273.25
967.71	2306.01
967.88	2318.30
968.04	2346.97
968.20	2265.05
968.37	2238.43
968.53	2293.72
968.69	2308.06
968.85	2306.01
969.02	2263.01
969.18	2299.87
969.34	2314.20
969.51	2295.77
969.67	2412.51
969.83	2291.68
970.00	2428.89
970.16	2285.53
970.32	2285.53
970.48	2275.29
970.65	2240.48
970.81	2226.14
970.97	2287.58
971.14	2281.44
971.30	2267.10
971.46	2232.29
971.63	2248.67
971.79	2283.49
971.95	2340.83
972.11	2303.96
972.28	2244.57
972.44	2197.47
972.60	2156.51
972.76	2209.76
972.93	2222.05
973.09	2238.43
973.25	2353.12
973.42	2289.63
973.58	2166.75
973.74	2285.53
973.90	2254.81
974.07	2250.72
974.23	2217.95
974.39	2271.20
974.55	2226.14
974.72	2199.52
974.88	2129.89
975.04	2197.47
975.20	2174.94
975.37	2183.13
975.53	2152.42
975.69	2273.25
975.85	2125.79
976.01	2179.04
976.18	2263.01
976.34	2152.42
976.50	2238.43
976.66	2156.51
976.83	2201.57
976.99	2211.81
977.15	2136.03
977.31	2127.84
977.47	2195.42
977.64	2209.76
977.80	2195.42
977.96	2287.58
978.12	2136.03
978.29	2222.05
978.45	2127.84
978.61	2152.42
978.77	2166.75
978.93	2146.27
979.10	2127.84
979.26	2131.94
979.42	2097.12
979.58	2119.65
979.74	2105.31
979.91	2074.59
980.07	2127.84
980.23	2117.60
980.39	2133.98
980.55	2115.55
980.71	2129.89
980.88	2105.31
981.04	2140.13
981.20	2097.12
981.36	2111.46
981.52	2232.29
981.68	2160.61
981.85	2127.84
982.01	2097.12
982.17	2095.07
982.33	2101.22
982.49	2076.64
982.65	2074.59
982.82	2113.50
982.98	2136.03
983.14	2095.07
983.30	2050.02
983.46	2129.89
983.62	2045.92
983.79	2107.36
983.95	2103.26
984.11	2015.20
984.27	2152.42
984.43	2004.96
984.59	1949.67
984.75	2047.97
984.91	2142.18
985.08	2095.07
985.24	2066.40
985.40	2021.35
985.56	2039.78
985.72	2039.78
985.88	2015.20
986.04	1974.24
986.20	2070.50
986.37	2056.16
986.53	2047.97
986.69	2080.74
986.85	2039.78
987.01	1996.77
987.17	1988.58
987.33	1959.91
987.49	1988.58
987.65	1990.63
987.82	2060.26
987.98	1939.43
988.14	2015.20
988.30	2007.01
988.46	2047.97
988.62	2017.25
988.78	2045.92
988.94	2019.30
989.10	2037.73
989.26	1968.10
989.42	2009.06
989.59	1984.48
989.75	2013.15
989.91	2033.63
990.07	1992.67
990.23	1986.53
990.39	2043.87
990.55	1943.52
990.71	1966.05
990.87	1974.24
991.03	1949.67
991.19	2004.96
991.35	1947.62
991.51	1955.81
991.67	1978.34
991.83	1957.86
992.00	1961.95
992.16	2050.02
992.32	1982.43
992.48	2013.15
992.64	2011.11
992.80	2015.20
992.96	2027.49
993.12	2037.73
993.28	2015.20
993.44	1929.19
993.60	2039.78
993.76	2027.49
993.92	1974.24
994.08	1935.33
994.24	1902.56
994.40	1953.76
994.56	1990.63
994.72	1949.67
994.88	1896.42
995.04	2004.96
995.20	1925.09
995.36	1931.23
995.52	1908.71
995.68	1955.81
995.84	1918.95
996.00	1906.66
996.16	1982.43
996.32	1961.95
996.48	1923.04
996.64	2000.87
996.80	1820.64
996.96	1959.91
997.12	1890.28
997.28	1933.28
997.44	1861.60
997.60	1955.81
997.76	1914.85
997.92	1914.85
998.08	1890.28
998.24	1863.65
998.40	1886.18
998.56	1949.67
998.72	1964.00
998.88	1880.04
999.04	1884.13
999.20	1908.71
999.36	1794.02
999.52	1873.89
999.68	1912.80
999.84	1880.04
1000.00	1867.75
1000.16	1923.04
1000.32	1941.47
1000.48	1886.18
1000.64	1873.89
1000.80	1832.93
1000.95	1806.31
1001.11	1789.92
1001.27	1804.26
1001.43	1894.37
1001.59	1849.32
1001.75	1941.47
1001.91	1880.04
1002.07	1859.56
1002.23	1785.83
1002.39	1837.03
1002.55	1888.23
1002.71	1824.74
1002.87	1869.80
1003.03	1742.82
1003.19	1826.79
1003.34	1808.36
1003.50	1804.26
1003.66	1902.56
1003.82	1804.26
1003.98	1816.55
1004.14	1853.41
1004.30	1861.60
1004.46	1824.74
1004.62	1886.18
1004.78	1816.55
1004.94	1804.26
1005.09	1933.28
1005.25	1794.02
1005.41	1767.40
1005.57	1824.74
1005.73	1718.25
1005.89	1806.31
1006.05	1818.60
1006.21	1830.88
1006.37	1796.07
1006.52	1791.97
1006.68	1814.50
1006.84	1810.40
1007.00	1787.88
1007.16	1830.88
1007.32	1783.78
1007.48	1730.53
1007.64	1869.80
1007.79	1877.99
1007.95	1775.59
1008.11	1845.22
1008.27	1810.40
1008.43	1785.83
1008.59	1869.80
1008.75	1796.07
1008.91	1808.36
1009.06	1826.79
1009.22	1767.40
1009.38	1816.55
1009.54	1775.59
1009.70	1837.03
1009.86	1742.82
1010.01	1744.87
1010.17	1791.97
1010.33	1820.64
1010.49	1708.01
1010.65	1742.82
1010.81	1781.73
1010.96	1755.11
1011.12	1804.26
1011.28	1703.91
1011.44	1724.39
1011.60	1822.69
1011.76	1726.44
1011.91	1753.06
1012.07	1765.35
1012.23	1755.11
1012.39	1789.92
1012.55	1740.77
1012.71	1720.29
1012.86	1816.55
1013.02	1744.87
1013.18	1742.82
1013.34	1722.34
1013.50	1820.64
1013.65	1712.10
1013.81	1693.67
1013.97	1789.92
1014.13	1794.02
1014.29	1773.54
1014.44	1765.35
1014.60	1744.87
1014.76	1703.91
1014.92	1767.40
1015.07	1705.96
1015.23	1800.16
1015.39	1751.01
1015.55	1757.16
1015.71	1759.21
1015.86	1748.97
1016.02	1722.34
1016.18	1656.81
1016.34	1765.35
1016.49	1744.87
1016.65	1828.84
1016.81	1718.25
1016.97	1777.64
1017.12	1804.26
1017.28	1671.14
1017.44	1701.86
1017.60	1767.40
1017.75	1687.53
1017.91	1699.81
1018.07	1746.92
1018.23	1748.97
1018.38	1755.11
1018.54	1755.11
1018.70	1687.53
1018.86	1742.82
1019.01	1685.48
1019.17	1632.23
1019.33	1728.49
1019.49	1740.77
1019.64	1712.10
1019.80	1763.30
1019.96	1769.44
1020.12	1660.90
1020.27	1699.81
1020.43	1685.48
1020.59	1701.86
1020.74	1708.01
1020.90	1712.10
1021.06	1662.95
1021.22	1665.00
1021.37	1654.76
1021.53	1693.67
1021.69	1705.96
1021.84	1665.00
1022.00	1693.67
1022.16	1669.09
1022.31	1685.48
1022.47	1710.05
1022.63	1724.39
1022.79	1621.99
1022.94	1603.56
1023.10	1705.96
1023.26	1675.24
1023.41	1699.81
1023.57	1726.44
1023.73	1656.81
1023.88	1714.15
1024.04	1652.71
1024.20	1603.56
1024.35	1710.05
1024.51	1675.24
1024.67	1693.67
1024.82	1751.01
1024.98	1703.91
1025.14	1712.10
1025.29	1628.14
1025.45	1759.21
1025.61	1619.94
1025.76	1626.09
1025.92	1689.57
1026.08	1683.43
1026.23	1773.54
1026.39	1695.72
1026.55	1570.79
1026.70	1595.37
1026.86	1626.09
1027.02	1626.09
1027.17	1746.92
1027.33	1630.18
1027.48	1736.68
1027.64	1667.05
1027.80	1697.77
1027.95	1636.33
1028.11	1581.03
1028.27	1665.00
1028.42	1595.37
1028.58	1630.18
1028.73	1687.53
1028.89	1587.18
1029.05	1708.01
1029.20	1705.96
>>>>>End Processed Spectral Data<<<<<
