SpectraSuite Data File
++++++++++++++++++++++++++++++++++++
Date: Tue Jun 13 11:53:15 CEST 2017
User: INFO_000
Dark Spectrum Present: No
Reference Spectrum Present: No
Number of Sampled Component Spectra: 1
Spectrometers: USB4H00879
Integration Time (usec): 30000 (USB4H00879)
Spectra Averaged: 1 (USB4H00879)
Boxcar Smoothing: 0 (USB4H00879)
Correct for Electrical Dark: No (USB4H00879)
Strobe/Lamp Enabled: No (USB4H00879)
Correct for Detector Non-linearity: No (USB4H00879)
Correct for Stray Light: No (USB4H00879)
Number of Pixels in Processed Spectrum: 3648
>>>>>Begin Processed Spectral Data<<<<<
345.13	1376.24
345.34	1376.24
345.56	1376.24
345.78	1357.80
345.99	1333.23
346.21	1488.87
346.42	1490.92
346.64	1523.69
346.86	1601.51
347.07	1466.35
347.29	1603.56
347.50	1478.63
347.72	1523.69
347.94	1468.39
348.15	1495.02
348.37	1515.50
348.59	1535.98
348.80	1476.59
349.02	1576.94
349.23	1554.41
349.45	1636.33
349.67	1646.57
349.88	1644.52
350.10	1630.18
350.31	1642.47
350.53	1656.81
350.75	1757.16
350.96	1601.51
351.18	1617.90
351.39	1581.03
351.61	1556.46
351.82	1681.38
352.04	1615.85
352.26	1589.22
352.47	1611.75
352.69	1742.82
352.90	1603.56
353.12	1624.04
353.34	1599.46
353.55	1648.61
353.77	1607.66
353.98	1560.55
354.20	1583.08
354.41	1644.52
354.63	1720.29
354.85	1744.87
355.06	1544.17
355.28	1599.46
355.49	1624.04
355.71	1658.85
355.92	1642.47
356.14	1626.09
356.35	1624.04
356.57	1597.42
356.79	1644.52
357.00	1607.66
357.22	1658.85
357.43	1538.02
357.65	1667.05
357.86	1515.50
358.08	1646.57
358.29	1673.19
358.51	1675.24
358.72	1697.77
358.94	1638.38
359.16	1654.76
359.37	1724.39
359.59	1695.72
359.80	1662.95
360.02	1660.90
360.23	1724.39
360.45	1687.53
360.66	1716.20
360.88	1638.38
361.09	1693.67
361.31	1703.91
361.52	1728.49
361.74	1777.64
361.95	1675.24
362.17	1712.10
362.38	1765.35
362.60	1675.24
362.81	1765.35
363.03	1677.29
363.24	1726.44
363.46	1748.97
363.67	1720.29
363.89	1765.35
364.10	1689.57
364.32	1740.77
364.53	1652.71
364.75	1654.76
364.96	1724.39
365.18	1699.81
365.39	1728.49
365.61	1726.44
365.82	1791.97
366.04	1722.34
366.25	1720.29
366.47	1763.30
366.68	1730.53
366.90	1783.78
367.11	1783.78
367.33	1736.68
367.54	1751.01
367.76	1785.83
367.97	1812.45
368.19	1716.20
368.40	1757.16
368.62	1724.39
368.83	1718.25
369.05	1730.53
369.26	1753.06
369.48	1687.53
369.69	1699.81
369.91	1716.20
370.12	1769.44
370.33	1791.97
370.55	1746.92
370.76	1787.88
370.98	1763.30
371.19	1802.21
371.41	1744.87
371.62	1744.87
371.84	1777.64
372.05	1828.84
372.27	1720.29
372.48	1804.26
372.69	1791.97
372.91	1880.04
373.12	1832.93
373.34	1882.08
373.55	1851.36
373.77	1810.40
373.98	1818.60
374.20	1810.40
374.41	1888.23
374.62	1880.04
374.84	1908.71
375.05	1916.90
375.27	1890.28
375.48	1865.70
375.70	1900.52
375.91	1910.75
376.12	1964.00
376.34	1886.18
376.55	1929.19
376.77	1869.80
376.98	1904.61
377.19	1814.50
377.41	1867.75
377.62	1888.23
377.84	1937.38
378.05	1941.47
378.27	1857.51
378.48	1937.38
378.69	1996.77
378.91	1925.09
379.12	1957.86
379.34	1935.33
379.55	1947.62
379.76	1896.42
379.98	2037.73
380.19	1916.90
380.41	1925.09
380.62	1978.34
380.83	2004.96
381.05	1894.37
381.26	2015.20
381.47	1996.77
381.69	2007.01
381.90	2041.82
382.12	1984.48
382.33	2039.78
382.54	2002.91
382.76	2064.35
382.97	2062.30
383.19	2027.49
383.40	2076.64
383.61	2004.96
383.83	2002.91
384.04	2052.06
384.25	2115.55
384.47	2076.64
384.68	2111.46
384.89	2140.13
385.11	2076.64
385.32	2052.06
385.54	2088.93
385.75	2131.94
385.96	2109.41
386.18	2078.69
386.39	2127.84
386.60	2043.87
386.82	2166.75
387.03	2111.46
387.24	2050.02
387.46	2164.70
387.67	2121.70
387.88	2201.57
388.10	2162.66
388.31	2148.32
388.52	2111.46
388.74	2211.81
388.95	2185.18
389.16	2189.28
389.38	2170.85
389.59	2211.81
389.80	2263.01
390.02	2181.09
390.23	2287.58
390.44	2213.85
390.66	2340.83
390.87	2258.91
391.08	2248.67
391.30	2314.20
391.51	2258.91
391.72	2330.59
391.94	2359.26
392.15	2357.21
392.36	2349.02
392.58	2273.25
392.79	2441.18
393.00	2422.75
393.22	2365.40
393.43	2453.47
393.64	2414.56
393.85	2385.88
394.07	2432.99
394.28	2424.80
394.49	2412.51
394.71	2383.84
394.92	2486.23
395.13	2451.42
395.35	2416.60
395.56	2408.41
395.77	2475.99
395.98	2568.15
396.20	2490.33
396.41	2484.19
396.62	2562.01
396.84	2512.86
397.05	2559.96
397.26	2553.82
397.47	2562.01
397.69	2553.82
397.90	2549.72
398.11	2559.96
398.32	2557.91
398.54	2533.34
398.75	2543.58
398.96	2590.68
399.18	2734.04
399.39	2596.82
399.60	2715.61
399.81	2619.35
400.03	2641.88
400.24	2789.33
400.45	2662.36
400.66	2756.57
400.88	2648.02
401.09	2670.55
401.30	2645.98
401.51	2695.13
401.73	2766.81
401.94	2758.61
402.15	2770.90
402.36	2764.76
402.58	2699.22
402.79	2832.34
403.00	2881.49
403.21	2803.67
403.43	2830.29
403.64	2887.64
403.85	2762.71
404.06	2856.92
404.27	2734.04
404.49	2789.33
404.70	2781.14
404.91	2899.92
405.12	2910.16
405.34	2871.25
405.55	3006.42
405.76	2842.58
405.97	2942.93
406.19	3039.19
406.40	2916.31
406.61	2842.58
406.82	3041.23
407.03	2992.08
407.25	2947.03
407.46	3004.37
407.67	2938.84
407.88	2918.36
408.09	3006.42
408.31	2975.70
408.52	3069.91
408.73	2944.98
408.94	3086.29
409.15	3047.38
409.37	3067.86
409.58	3080.14
409.79	3141.58
410.00	3057.62
410.21	3098.58
410.43	3129.30
410.64	3012.56
410.85	3071.95
411.06	3147.73
411.27	3219.41
411.48	3123.15
411.70	3147.73
411.91	3258.32
412.12	3160.02
412.33	3153.87
412.54	3151.82
412.76	3211.22
412.97	3231.69
413.18	3196.88
413.39	3256.27
413.60	3229.65
413.81	3317.71
414.03	3356.62
414.24	3272.65
414.45	3362.76
414.66	3286.99
414.87	3319.76
415.08	3344.33
415.30	3270.61
415.51	3364.81
415.72	3436.49
415.93	3248.08
416.14	3393.48
416.35	3303.37
416.56	3397.58
416.78	3432.40
416.99	3411.92
417.20	3399.63
417.41	3510.22
417.62	3411.92
417.83	3514.31
418.04	3514.31
418.26	3416.01
418.47	3514.31
418.68	3606.47
418.89	3649.48
419.10	3610.57
419.31	3514.31
419.52	3770.31
419.73	3686.34
419.95	3694.54
420.16	3604.42
420.37	3737.54
420.58	3733.45
420.79	3585.99
421.00	3715.02
421.21	3835.85
421.42	3635.14
421.63	3747.78
421.85	3778.50
422.06	3864.52
422.27	3887.04
422.48	3778.50
422.69	3813.32
422.90	3915.72
423.11	3960.77
423.32	3940.29
423.53	4116.42
423.75	4003.78
423.96	3934.15
424.17	4011.97
424.38	4042.69
424.59	4044.74
424.80	4175.81
425.01	3983.30
425.22	3985.35
425.43	4108.23
425.64	4126.66
425.85	4261.82
426.06	3987.40
426.28	4233.15
426.49	4032.45
426.70	4200.38
426.91	4270.01
427.12	4411.32
427.33	4249.54
427.54	4126.66
427.75	4315.07
427.96	4370.37
428.17	4280.25
428.38	4364.22
428.59	4454.33
428.80	4505.53
429.01	4413.37
429.23	4440.00
429.44	4575.16
429.65	4534.20
429.86	4501.44
430.07	4499.39
430.28	4448.19
430.49	4403.13
430.70	4587.45
430.91	4646.84
431.12	4597.69
431.33	4704.18
431.54	4612.03
431.75	4640.70
431.96	4698.04
432.17	4640.70
432.38	4548.54
432.59	4796.34
432.80	4681.66
433.01	4900.79
433.22	5076.91
433.43	4865.97
433.64	4802.49
433.85	4882.36
434.06	4868.02
434.27	4800.44
434.49	5033.91
434.70	5109.68
434.91	4976.56
435.12	5076.91
435.33	5089.20
435.54	5019.57
435.75	4833.21
435.96	5093.30
436.17	5042.10
436.38	5167.03
436.59	5291.95
436.80	5207.98
437.01	5377.97
437.22	5312.43
437.43	5132.21
437.64	4851.64
437.85	5148.59
438.06	5246.90
438.27	5236.66
438.48	5126.07
438.69	5316.53
438.90	5414.83
439.11	5257.14
439.32	5382.06
439.53	5545.90
439.74	5306.29
439.95	5384.11
440.16	5431.21
440.37	5312.43
440.57	5320.62
440.78	5531.56
440.99	5373.87
441.20	5466.03
441.41	5384.11
441.62	5709.74
441.83	5459.88
442.04	5717.93
442.25	5642.15
442.46	5611.43
442.67	5767.08
442.88	5980.07
443.09	5644.20
443.30	5547.95
443.51	5789.61
443.72	5973.92
443.93	5760.94
444.14	6131.62
444.35	5771.18
444.56	5724.07
444.77	6018.98
444.98	5736.36
445.19	5877.67
445.40	5859.24
445.61	5943.21
445.81	6160.29
446.02	5902.25
446.23	6076.32
446.44	5808.04
446.65	5978.02
446.86	6012.84
447.07	6018.98
447.28	6191.01
447.49	6172.58
447.70	5955.49
447.91	6121.38
448.12	6021.03
448.33	6172.58
448.54	6291.36
448.74	6219.68
448.95	6238.11
449.16	6262.69
449.37	6490.01
449.58	6287.26
449.79	6516.64
450.00	6199.20
450.21	6537.12
450.42	6506.40
450.63	6344.61
450.84	6522.78
451.05	6399.90
451.25	6496.16
451.46	6354.85
451.67	6711.19
451.88	6700.95
452.09	6643.61
452.30	6557.60
452.51	6668.19
452.72	6649.75
452.93	6748.06
453.13	6645.66
453.34	6799.26
453.55	6762.39
453.76	6848.41
453.97	7159.70
454.18	6971.29
454.39	7120.79
454.60	6944.66
454.81	7040.92
455.01	7268.24
455.22	6827.93
455.43	7141.27
455.64	7329.68
455.85	7196.56
456.06	7446.41
456.27	7233.43
456.48	7194.51
456.68	7296.91
456.89	7325.58
457.10	7550.86
457.31	7352.21
457.52	7282.58
457.73	7516.05
457.94	7802.76
458.14	7427.98
458.35	7827.34
458.56	7720.84
458.77	7624.59
458.98	7731.08
459.19	7622.54
459.39	7763.85
459.60	7974.79
459.81	7743.37
460.02	8007.56
460.23	7749.51
460.44	8202.11
460.65	8097.67
460.85	8109.96
461.06	8134.53
461.27	7853.96
461.48	8249.22
461.69	8365.95
461.89	8245.12
462.10	8292.23
462.31	8140.68
462.52	8210.31
462.73	8191.88
462.94	8402.82
463.14	8460.16
463.35	8390.53
463.56	8931.19
463.77	8632.19
463.98	8822.65
464.18	8619.90
464.39	8707.96
464.60	9019.25
464.81	8873.85
465.02	8810.36
465.23	9187.19
465.43	9029.49
465.64	9115.51
465.85	9156.47
466.06	9041.78
466.27	9340.79
466.47	9355.12
466.68	9056.12
466.89	9281.39
467.10	9437.04
467.30	9275.25
467.51	9389.94
467.72	9633.64
467.93	9459.57
468.14	9664.36
468.34	9736.04
468.55	9580.40
468.76	9789.29
468.97	9541.49
469.17	9967.46
469.38	9908.07
469.59	10143.59
469.80	9815.91
470.01	10033.00
470.21	10051.43
470.42	10370.91
470.63	10272.61
470.84	10418.02
471.04	10450.78
471.25	10415.97
471.46	10448.74
471.67	10790.75
471.87	10651.49
472.08	10473.31
472.29	10895.19
472.50	10479.46
472.70	10784.60
472.91	11081.56
473.12	11087.70
473.33	11099.99
473.53	11290.45
473.74	11245.40
473.95	11292.50
474.16	11437.91
474.36	11497.30
474.57	11394.90
474.78	11573.07
474.99	11392.85
475.19	11597.65
475.40	11921.23
475.61	11847.50
475.81	11949.90
476.02	12357.44
476.23	11984.71
476.44	12064.58
476.64	12324.68
476.85	12515.14
477.06	12396.35
477.27	12576.58
477.47	12676.93
477.68	12580.67
477.89	12990.27
478.09	12754.75
478.30	12883.77
478.51	12955.45
478.71	13016.89
478.92	12963.64
479.13	13199.16
479.34	13502.26
479.54	13477.68
479.75	13365.04
479.96	13459.25
480.16	13453.11
480.37	13815.60
480.58	13805.36
480.78	14221.10
480.99	13897.52
481.20	14092.07
481.41	14071.59
481.61	14173.99
481.82	14573.35
482.03	14262.05
482.23	14343.97
482.44	14563.11
482.65	14575.39
482.85	14796.57
483.06	14866.21
483.27	14827.29
483.47	14817.05
483.68	15111.96
483.89	15206.17
484.09	14962.46
484.30	15255.32
484.51	15376.15
484.71	15517.46
484.92	15281.94
485.13	15435.54
485.33	15757.07
485.54	15744.78
485.75	15783.70
485.95	15812.37
486.16	15970.06
486.37	16086.79
486.57	16004.88
486.78	16203.53
486.98	16191.24
487.19	16463.62
487.40	16277.26
487.60	16600.83
487.81	16535.30
488.02	16557.83
488.22	16684.80
488.43	16957.18
488.64	16955.13
488.84	17049.34
489.05	16934.65
489.25	17186.55
489.46	17481.46
489.67	17127.16
489.87	17737.46
490.08	17354.49
490.29	17446.65
490.49	17839.86
490.70	17684.21
490.90	17854.19
491.11	17809.14
491.32	18120.43
491.52	18024.17
491.73	17839.86
491.94	17954.54
492.14	18108.14
492.35	18267.88
492.55	18517.73
492.76	18368.23
492.97	18575.08
493.17	18595.56
493.38	18476.77
493.58	18878.18
493.79	18751.20
494.00	18749.15
494.20	19269.34
494.41	19140.32
494.61	19408.60
494.82	19031.77
495.02	19261.15
495.23	19187.42
495.44	19435.22
495.64	19302.11
495.85	19486.42
496.05	19740.37
496.26	19670.74
496.47	19910.35
496.67	19756.75
496.88	19896.02
497.08	19822.29
497.29	20256.46
497.49	19932.88
497.70	19859.15
497.91	20399.82
498.11	20510.41
498.32	20618.95
498.52	20547.27
498.73	20442.82
498.93	20528.84
499.14	20690.63
499.34	20473.54
499.55	20903.62
499.76	20504.26
499.96	20911.81
500.17	20661.96
500.37	21124.80
500.58	20788.93
500.78	21132.99
500.99	21065.41
501.19	21626.55
501.40	21274.30
501.60	21280.44
501.81	21311.16
502.02	21427.90
502.22	21102.27
502.43	21745.33
502.63	21677.75
502.84	21634.74
503.04	21591.73
503.25	21939.89
503.45	21866.16
503.66	21853.87
503.86	21710.52
504.07	22156.97
504.27	21966.51
504.48	22378.15
504.68	22030.00
504.89	22169.26
505.09	22458.03
505.30	22527.66
505.50	22247.08
505.71	22472.36
505.91	22339.24
506.12	22351.53
506.32	22515.37
506.53	22656.68
506.73	22675.11
506.94	22722.21
507.14	22740.64
507.35	22578.86
507.55	22808.23
507.76	23090.85
507.96	22879.91
508.17	22888.10
508.37	23162.53
508.58	23131.81
508.78	23086.75
508.99	23223.97
509.19	23154.33
509.40	23207.58
509.60	23293.60
509.81	23361.18
510.01	23197.34
510.22	23336.60
510.42	23516.83
510.63	23701.14
510.83	23430.81
511.04	23637.66
511.24	23711.38
511.44	23735.96
511.65	23793.30
511.85	23815.83
512.06	23625.37
512.26	23731.86
512.47	23793.30
512.67	23924.37
512.88	23752.34
513.08	24155.79
513.29	23938.71
513.49	24065.68
513.69	23922.32
513.90	24290.96
514.10	24039.06
514.31	24094.35
514.51	24346.25
514.72	24317.58
514.92	24428.17
515.13	24340.11
515.33	24477.32
515.53	24372.88
515.74	24368.78
515.94	24301.20
516.15	24522.38
516.35	23989.91
516.56	24884.87
516.76	24559.24
516.96	24759.94
517.17	25034.37
517.37	24794.76
517.58	24856.20
517.78	24796.81
517.99	25040.51
518.19	25198.21
518.39	24985.22
518.60	25175.68
518.80	25212.54
519.01	25360.00
519.21	25085.57
519.41	25343.61
519.62	25343.61
519.82	25198.21
520.03	25624.18
520.23	25398.91
520.43	25335.42
520.64	25599.61
520.84	25622.14
521.05	25454.20
521.25	25697.91
521.45	26189.42
521.66	26130.03
521.86	25892.47
522.07	25839.22
522.27	26052.21
522.47	26093.17
522.68	26201.71
522.88	25935.48
523.08	26148.46
523.29	26093.17
523.49	26130.03
523.70	25933.43
523.90	26558.06
524.10	26656.36
524.31	26308.21
524.51	26484.33
524.71	26904.17
524.92	26959.46
525.12	27035.24
525.33	26701.42
525.53	26820.20
525.73	27016.80
525.94	26850.92
526.14	27002.47
526.34	27111.01
526.55	27149.92
526.75	27082.34
526.95	27315.81
527.16	27420.25
527.36	27348.57
527.56	27319.90
527.77	27434.59
527.97	27516.51
528.17	27479.64
528.38	27717.21
528.58	27760.22
528.78	27532.89
528.99	27625.05
529.19	27895.38
529.39	27571.80
529.60	28042.84
529.80	27903.57
530.00	27962.97
530.21	28317.26
530.41	28716.62
530.61	27993.68
530.82	28378.70
531.02	28225.11
531.22	28221.01
531.43	28399.18
531.63	28771.91
531.83	28890.70
532.04	28907.08
532.24	28743.24
532.44	28851.78
532.64	29126.21
532.85	29072.96
533.05	29062.72
533.25	29412.93
533.46	29212.23
533.66	29736.51
533.86	29285.95
534.07	29513.28
534.27	29554.24
534.47	29468.22
534.67	29759.03
534.88	29453.89
535.08	29498.94
535.28	29929.02
535.49	30103.09
535.69	30350.90
535.89	30029.37
536.09	29941.30
536.30	30037.56
536.50	30295.60
536.70	29906.49
536.91	29996.60
537.11	30193.20
537.31	30193.20
537.51	29902.39
537.72	30375.47
537.92	31004.20
538.12	30752.30
538.32	30531.12
538.53	30584.37
538.73	30656.04
538.93	30643.76
539.13	30746.15
539.34	30809.64
539.54	30854.70
539.74	30762.54
539.94	30932.52
540.15	30899.75
540.35	31249.96
540.55	31223.33
540.75	31505.95
540.96	31489.57
541.16	31546.91
541.36	31647.26
541.56	31346.21
541.77	31698.46
541.97	31737.37
542.17	31878.68
542.37	31610.40
542.58	31653.40
542.78	31430.18
542.98	31825.43
543.18	32007.70
543.38	32179.73
543.59	32046.62
543.79	32046.62
543.99	31962.65
544.19	31677.98
544.40	32103.96
544.60	32114.20
544.80	32050.71
545.00	31989.27
545.20	31917.59
545.41	32192.02
545.61	31948.31
545.81	32316.95
546.01	32527.89
546.21	32253.46
546.42	32198.16
546.62	32562.70
546.82	32339.47
547.02	32382.48
547.22	32695.82
547.43	32687.63
547.63	32374.29
547.83	32691.73
548.03	32552.46
548.23	32521.74
548.44	32833.04
548.64	32962.06
548.84	32841.23
549.04	32529.94
549.24	32822.80
549.45	33093.13
549.65	32837.13
549.85	32839.18
550.05	33283.59
550.25	32917.00
550.45	33388.03
550.66	33287.68
550.86	32966.15
551.06	33080.84
551.26	33144.33
551.46	33205.77
551.66	32988.68
551.87	32847.37
552.07	33533.44
552.27	33424.90
552.47	33277.44
552.67	33469.95
552.87	33562.11
553.07	33431.04
553.28	33590.78
553.48	33451.52
553.68	33463.81
553.88	33846.78
554.08	33517.06
554.28	33322.50
554.48	33173.00
554.69	33736.19
554.89	33586.69
555.09	33846.78
555.29	33211.91
555.49	33420.80
555.69	33594.88
555.89	33773.05
556.10	34027.00
556.30	33506.82
556.50	33510.91
556.70	33484.29
556.90	33912.31
557.10	34272.76
557.30	33289.73
557.50	33785.34
557.70	34086.39
557.91	33961.47
558.11	33881.60
558.31	34145.78
558.51	33695.23
558.71	34162.17
558.91	34002.43
559.11	33594.88
559.31	34102.78
559.51	33613.31
559.72	33748.48
559.92	34115.06
560.12	33945.08
560.32	34153.97
560.52	33981.95
560.72	34266.61
560.92	34063.86
561.12	34106.87
561.32	34254.33
561.52	33662.46
561.72	34211.32
561.93	33971.71
562.13	34008.57
562.33	33986.04
562.53	34637.30
562.73	34190.84
562.93	34072.06
563.13	34096.63
563.33	34018.81
563.53	34375.16
563.73	34072.06
563.93	34168.31
564.13	34733.55
564.33	34502.13
564.53	34190.84
564.74	34190.84
564.94	33842.68
565.14	34203.13
565.34	33947.13
565.54	34528.75
565.74	34551.28
565.94	34518.51
566.14	34676.21
566.34	34313.72
566.54	34463.22
566.74	34072.06
566.94	34551.28
567.14	34924.01
567.34	34280.95
567.54	34418.16
567.74	34371.06
567.94	34364.92
568.14	34635.25
568.34	34668.02
568.54	34299.38
568.74	34741.74
568.94	34502.13
569.14	34936.30
569.34	34493.94
569.54	34489.84
569.75	34622.96
569.95	34481.65
570.15	34895.34
570.35	34534.90
570.55	34547.18
570.75	34366.96
570.95	34629.10
571.15	34342.39
571.35	34866.67
571.55	34981.35
571.75	34481.65
571.95	34733.55
572.15	34745.84
572.35	34657.78
572.55	34803.18
572.75	34807.28
572.95	34772.46
573.15	34637.30
573.35	34745.84
573.55	34690.54
573.75	35050.99
573.95	34627.06
574.15	35020.27
574.35	34813.42
574.55	34983.40
574.75	34643.44
574.95	34946.54
575.15	34866.67
575.34	35028.46
575.54	35071.46
575.74	35055.08
575.94	34661.87
576.14	35274.21
576.34	35184.10
576.54	35284.45
576.74	34969.07
576.94	34940.39
577.14	35403.24
577.34	34987.50
577.54	35204.58
577.74	35263.97
577.94	35325.41
578.14	35237.35
578.34	35329.51
578.54	34815.47
578.74	35407.33
578.94	35929.56
579.14	35395.04
579.34	35329.51
579.54	35323.36
579.74	35522.02
579.94	35282.41
580.13	35560.93
580.33	35431.91
580.53	35657.18
580.73	35450.34
580.93	35528.16
581.13	35587.55
581.33	35605.98
581.53	35522.02
581.73	35704.29
581.93	35894.75
582.13	35577.31
582.33	35685.86
582.53	35767.77
582.73	35943.90
582.92	35825.12
583.12	35771.87
583.32	35837.41
583.52	35780.06
583.72	35907.04
583.92	36101.59
584.12	36206.04
584.32	36230.62
584.52	35976.67
584.72	35958.24
584.92	36115.93
585.11	36900.30
585.31	35653.09
585.51	36140.50
585.71	35898.84
585.91	36464.08
586.11	36152.79
586.31	35739.10
586.51	35991.00
586.71	35925.47
586.91	36242.90
587.10	36183.51
587.30	36441.56
587.50	36509.14
587.70	36320.73
587.90	36271.57
588.10	36195.80
588.30	36388.31
588.50	36591.06
588.69	36453.84
588.89	36339.16
589.09	36552.15
589.29	36259.29
589.49	36490.71
589.69	36402.64
589.89	36572.63
590.08	36554.19
590.28	36173.27
590.48	36398.55
590.68	36462.04
590.88	36705.74
591.08	36498.90
591.28	36543.95
591.47	37045.71
591.67	36355.54
591.87	36646.35
592.07	36681.17
592.27	36494.80
592.47	36965.84
592.67	36533.71
592.86	36736.46
593.06	36736.46
593.26	36816.33
593.46	36459.99
593.66	36388.31
593.86	36806.09
594.05	36548.05
594.25	36787.66
594.45	36560.34
594.65	36722.13
594.85	36253.14
595.05	36756.94
595.24	36816.33
595.44	36939.21
595.64	36804.05
595.84	36527.57
596.04	36914.64
596.23	36845.01
596.43	36924.88
596.63	37060.04
596.83	37086.67
597.03	36789.71
597.22	37381.57
597.42	36804.05
597.62	37309.89
597.82	37107.15
598.02	37137.87
598.21	37477.83
598.41	36734.42
598.61	37168.58
598.81	37062.09
599.01	37486.02
599.20	37103.05
599.40	37455.30
599.60	37352.90
599.80	37504.45
600.00	37232.07
600.19	37795.26
600.39	37017.04
600.59	37256.65
600.79	37105.10
600.98	37000.65
601.18	37303.75
601.38	37367.24
601.58	37678.53
601.78	37395.91
601.97	37504.45
602.17	37307.85
602.37	37641.67
602.57	37248.46
602.76	37641.67
602.96	37574.08
603.16	37780.93
603.36	37823.93
603.55	38073.79
603.75	37688.77
603.95	37586.37
604.15	37553.60
604.34	37494.21
604.54	37494.21
604.74	37830.08
604.94	37793.22
605.13	37705.15
605.33	37858.75
605.53	37719.49
605.73	37543.36
605.92	37617.09
606.12	37891.52
606.32	37965.24
606.52	37518.79
606.71	37787.07
606.91	37875.13
607.11	37836.22
607.30	37789.12
607.50	37983.68
607.70	38215.10
607.90	38055.36
608.09	37942.72
608.29	38028.73
608.49	38038.97
608.68	37866.94
608.88	37971.39
609.08	37780.93
609.28	38061.50
609.47	37795.26
609.67	38174.14
609.87	38061.50
610.06	37887.42
610.26	37914.05
610.46	38219.19
610.66	37805.50
610.85	38036.92
611.05	38047.16
611.25	38008.25
611.44	38028.73
611.64	38245.82
611.84	37873.09
612.03	37701.06
612.23	38176.19
612.43	38102.46
612.62	37850.56
612.82	37797.31
613.02	37973.44
613.21	38032.83
613.41	37852.61
613.61	38053.31
613.80	37744.06
614.00	37928.38
614.20	37703.10
614.39	37754.30
614.59	38084.03
614.79	37776.83
614.98	37682.62
615.18	37727.68
615.38	37836.22
615.57	37664.19
615.77	37993.92
615.97	38041.02
616.16	37823.93
616.36	37713.34
616.56	37893.57
616.75	37801.41
616.95	37696.96
617.15	37711.30
617.34	37666.24
617.54	37555.65
617.74	37860.80
617.93	37752.26
618.13	37313.99
618.32	37623.23
618.52	37576.13
618.72	37576.13
618.91	37807.55
619.11	37516.74
619.31	37735.87
619.50	37582.27
619.70	37260.74
619.90	37533.12
620.09	37754.30
620.29	37109.19
620.48	37342.66
620.68	37658.05
620.88	37352.90
621.07	37160.39
621.27	37377.48
621.46	37084.62
621.66	37320.13
621.86	37721.54
622.05	37166.54
622.25	37572.03
622.44	37248.46
622.64	37148.11
622.84	37490.12
623.03	37135.82
623.23	37098.95
623.42	36789.71
623.62	36931.02
623.82	37268.94
624.01	36787.66
624.21	37377.48
624.40	37090.76
624.60	37168.58
624.80	36916.68
624.99	36851.15
625.19	36914.64
625.38	36896.20
625.58	36947.40
625.77	37084.62
625.97	37041.61
626.17	36586.96
626.36	37017.04
626.56	36961.74
626.75	36720.08
626.95	37117.39
627.14	36914.64
627.34	37014.99
627.54	36525.52
627.73	36756.94
627.93	36689.36
628.12	36515.28
628.32	36713.94
628.51	36845.01
628.71	36736.46
628.90	37029.32
629.10	37025.23
629.30	36627.92
629.49	36472.28
629.69	36548.05
629.88	36292.05
630.08	36900.30
630.27	36734.42
630.47	36484.56
630.66	36627.92
630.86	36756.94
631.05	36351.45
631.25	36918.73
631.44	36736.46
631.64	36439.51
631.84	36812.24
632.03	36783.57
632.23	36482.52
632.42	36939.21
632.62	36580.82
632.81	36406.74
633.01	36488.66
633.20	36392.40
633.40	36560.34
633.59	36482.52
633.79	36068.83
633.98	36613.59
634.18	36586.96
634.37	36371.92
634.57	36423.12
634.76	36707.79
634.96	36730.32
635.15	36396.50
635.35	35921.37
635.54	36369.88
635.74	36601.30
635.93	35814.88
636.13	36412.88
636.32	36285.91
636.52	36263.38
636.71	35763.68
636.91	36259.29
637.10	36320.73
637.30	36160.98
637.49	36122.07
637.69	36310.49
637.88	36224.47
638.08	35732.96
638.27	36392.40
638.46	36472.28
638.66	36273.62
638.85	36134.36
639.05	36304.34
639.24	36486.61
639.44	36201.94
639.63	36085.21
639.83	36208.09
640.02	35997.15
640.22	35958.24
640.41	36470.23
640.61	35898.84
640.80	36218.33
640.99	36038.11
641.19	36322.77
641.38	36124.12
641.58	36160.98
641.77	36359.64
641.97	36179.42
642.16	35655.14
642.36	35911.13
642.55	36294.10
642.74	35829.21
642.94	36079.07
643.13	36251.09
643.33	36048.35
643.52	36304.34
643.72	35878.36
643.91	35808.73
644.10	36269.53
644.30	36193.75
644.49	35958.24
644.69	36140.50
644.88	36042.20
645.08	35950.04
645.27	36044.25
645.46	35552.74
645.66	36158.94
645.85	35479.01
646.05	35939.80
646.24	35720.67
646.43	35878.36
646.63	36222.42
646.82	35919.32
647.02	35632.61
647.21	35792.35
647.40	36072.92
647.60	35935.71
647.79	36089.31
647.99	36257.24
648.18	35632.61
648.37	36517.33
648.57	35878.36
648.76	35835.36
648.96	35644.90
649.15	36281.81
649.34	35759.58
649.54	36152.79
649.73	35818.97
649.92	35788.25
650.12	35792.35
650.31	36091.35
650.51	36255.19
650.70	35796.45
650.89	35640.80
651.09	36341.21
651.28	36023.77
651.47	35917.28
651.67	36017.63
651.86	35859.93
652.06	35669.47
652.25	35870.17
652.44	36124.12
652.64	35509.73
652.83	35638.75
653.02	35849.69
653.22	35896.80
653.41	35411.43
653.60	35444.20
653.80	35624.42
653.99	36079.07
654.18	35646.94
654.38	35354.08
654.57	35403.24
654.76	35739.10
654.96	35757.53
655.15	35548.64
655.34	35188.20
655.54	35417.57
655.73	35517.92
655.92	35577.31
656.12	35665.38
656.31	35747.29
656.50	35747.29
656.70	35460.58
656.89	34887.15
657.08	35653.09
657.28	35349.99
657.47	35538.40
657.66	35536.35
657.86	35241.45
658.05	35501.54
658.24	35841.50
658.43	35243.49
658.63	35485.15
658.82	35147.24
659.01	35122.66
659.21	35651.04
659.40	35276.26
659.59	35223.01
659.79	35251.69
659.98	35294.69
660.17	35452.39
660.36	35083.75
660.56	35227.11
660.75	35282.41
660.94	35472.87
661.14	35067.37
661.33	35212.77
661.52	35311.08
661.71	35395.04
661.91	34975.21
662.10	35020.27
662.29	35401.19
662.49	35425.76
662.68	35368.42
662.87	35476.96
663.06	35206.63
663.26	35030.51
663.45	35284.45
663.64	35053.03
663.83	35304.93
664.03	34717.17
664.22	35069.42
664.41	35153.38
664.60	35001.83
664.80	35093.99
664.99	34909.68
665.18	34631.15
665.37	34872.81
665.57	35229.16
665.76	35038.70
665.95	35073.51
666.14	35341.80
666.34	34784.75
666.53	35204.58
666.72	34885.10
666.91	34815.47
667.11	34590.19
667.30	34543.09
667.49	34600.43
667.68	34162.17
667.87	34704.88
668.07	34876.91
668.26	34711.02
668.45	34893.29
668.64	34520.56
668.84	34670.06
669.03	34829.80
669.22	34307.57
669.41	34733.55
669.60	34565.62
669.80	34608.62
669.99	34657.78
670.18	34696.69
670.37	34690.54
670.57	34862.57
670.76	34334.20
670.95	34711.02
671.14	34749.93
671.33	34340.34
671.53	34186.74
671.72	34309.62
671.91	34168.31
672.10	34321.91
672.29	34444.79
672.48	34311.67
672.68	34391.54
672.87	34276.85
673.06	34285.04
673.25	34612.72
673.44	34106.87
673.64	34383.35
673.83	33908.22
674.02	34176.50
674.21	34225.65
674.40	34182.65
674.59	33648.13
674.79	34061.82
674.98	33928.70
675.17	34270.71
675.36	34049.53
675.55	34299.38
675.74	33928.70
675.94	33988.09
676.13	33983.99
676.32	33764.86
676.51	33910.27
676.70	33871.36
676.89	33428.99
677.08	33852.92
677.28	33885.69
677.47	33740.29
677.66	34362.87
677.85	33859.07
678.04	33936.89
678.23	33803.77
678.42	33762.81
678.62	33609.22
678.81	33934.84
679.00	33527.30
679.19	33957.37
679.38	33633.79
679.57	33738.24
679.76	33883.64
679.96	34188.79
680.15	33498.62
680.34	33717.76
680.53	33644.03
680.72	33510.91
680.91	33603.07
681.10	33365.51
681.29	33418.75
681.48	33394.18
681.68	33453.57
681.87	33209.86
682.06	33441.28
682.25	33023.50
682.44	33080.84
682.63	33388.03
682.82	33027.59
683.01	32982.54
683.20	32744.97
683.39	33283.59
683.59	32695.82
683.78	32759.31
683.97	32681.49
684.16	33164.81
684.35	32794.12
684.54	32828.94
684.73	33064.46
684.92	32675.34
685.11	32876.04
685.30	32695.82
685.49	32736.78
685.69	32585.23
685.88	33015.30
686.07	32755.21
686.26	32736.78
686.45	32450.06
686.64	32882.19
686.83	32611.85
687.02	33013.26
687.21	32939.53
687.40	32353.81
687.59	32341.52
687.78	32529.94
687.97	33025.54
688.16	32568.85
688.35	32362.00
688.54	32560.66
688.74	32116.25
688.93	32384.53
689.12	32228.88
689.31	32382.48
689.50	32263.70
689.69	32046.62
689.88	31987.22
690.07	32228.88
690.26	32118.29
690.45	32554.51
690.64	32118.29
690.83	31985.18
691.02	32161.30
691.21	32167.45
691.40	31911.45
691.59	31913.50
691.78	31868.44
691.97	32357.91
692.16	31471.14
692.35	31823.39
692.54	31999.51
692.73	31944.22
692.92	31649.31
693.11	31952.41
693.30	31524.38
693.49	31755.80
693.68	31870.49
693.87	31471.14
694.06	31493.66
694.25	31270.43
694.44	31536.67
694.63	31446.56
694.82	31602.21
695.01	31282.72
695.20	31098.41
695.39	31309.35
695.58	31512.10
695.77	31112.74
695.96	31047.21
696.15	30881.32
696.34	31147.56
696.53	31247.91
696.72	31409.70
696.91	31086.12
697.10	31258.15
697.29	31165.99
697.48	31135.27
697.67	31010.34
697.86	30647.85
698.05	31118.89
698.24	31036.97
698.43	30668.33
698.62	30686.76
698.81	30727.72
699.00	31051.30
699.19	30701.10
699.38	30559.79
699.57	30459.44
699.76	31010.34
699.95	30715.44
700.14	30654.00
700.32	30649.90
700.51	30621.23
700.70	30678.57
700.89	30975.53
701.08	30821.93
701.27	30363.18
701.46	30694.96
701.65	30477.87
701.84	30819.88
702.03	30168.63
702.22	30408.24
702.41	30557.74
702.60	30406.19
702.79	30180.92
702.98	30258.74
703.17	30139.96
703.35	29967.93
703.54	30232.11
703.73	30279.22
703.92	30135.86
704.11	30232.11
704.30	30164.53
704.49	29929.02
704.68	29578.81
704.87	30000.69
705.06	29972.02
705.25	29666.88
705.43	29666.88
705.62	29783.61
705.81	29816.38
706.00	29861.43
706.19	29898.30
706.38	29677.12
706.57	29742.65
706.76	29296.19
706.95	29746.75
707.14	29687.36
707.32	29421.12
707.51	29052.48
707.70	29427.26
707.89	29480.51
708.08	29122.12
708.27	29351.49
708.46	29591.10
708.65	29148.74
708.84	29623.87
709.02	29226.56
709.21	29374.02
709.40	28816.97
709.59	29216.32
709.78	28945.99
709.97	29183.55
710.16	28972.61
710.34	28943.94
710.53	28882.50
710.72	29032.00
710.91	28847.69
711.10	29230.66
711.29	28778.06
711.48	28989.00
711.66	29089.35
711.85	28735.05
712.04	28745.29
712.23	28730.95
712.42	28870.22
712.61	28739.15
712.80	28577.36
712.98	28599.88
713.17	28622.41
713.36	28593.74
713.55	28511.82
713.74	28456.53
713.93	28411.47
714.11	28159.57
714.30	28327.50
714.49	28509.77
714.68	28311.12
714.87	28612.17
715.06	28311.12
715.24	28028.50
715.43	27950.68
715.62	28038.74
715.81	28091.99
716.00	28579.40
716.18	28249.68
716.37	28044.88
716.56	28018.26
716.75	27965.01
716.94	27647.58
717.12	27721.30
717.31	27881.05
717.50	27653.72
717.69	27983.44
717.88	27563.61
718.06	27803.22
718.25	27838.04
718.44	27678.30
718.63	27541.08
718.82	27682.39
719.00	27387.49
719.19	27565.66
719.38	27231.84
719.57	27381.34
719.76	27194.98
719.94	27301.47
720.13	27270.75
720.32	27461.21
720.51	26832.49
720.69	26830.44
720.88	27057.76
721.07	26859.11
721.26	26478.19
721.44	26750.57
721.63	26734.18
721.82	26826.34
722.01	26545.77
722.20	26986.08
722.38	26590.83
722.57	26482.28
722.76	26431.08
722.95	26840.68
723.13	26363.50
723.32	26347.12
723.51	26240.62
723.70	26107.51
723.88	26082.93
724.07	26361.45
724.26	26216.05
724.44	26013.30
724.63	26439.28
724.82	26257.01
725.01	26089.07
725.19	26310.25
725.38	25843.32
725.57	26029.68
725.76	26044.02
725.94	25845.37
726.13	26058.35
726.32	25769.59
726.51	25845.37
726.69	26021.49
726.88	26109.55
727.07	25994.87
727.25	25732.73
727.44	25865.85
727.63	25611.90
727.82	26015.35
728.00	25855.61
728.19	25804.41
728.38	25826.93
728.56	25628.28
728.75	25958.00
728.94	25882.23
729.12	25871.99
729.31	25591.42
729.50	25712.25
729.69	25519.74
729.87	25767.54
730.06	25779.83
730.25	25513.59
730.43	25646.71
730.62	25572.99
730.81	25724.54
730.99	25697.91
731.18	25171.58
731.37	25632.38
731.55	25779.83
731.74	25532.03
731.93	25331.33
732.11	25605.75
732.30	25613.95
732.49	25349.76
732.67	25282.17
732.86	25419.39
733.05	25489.02
733.23	25171.58
733.42	24891.01
733.61	25253.50
733.79	25323.13
733.98	25466.49
734.17	24903.30
734.35	24901.25
734.54	25167.49
734.73	25052.80
734.91	24768.13
735.10	24960.64
735.29	25091.71
735.47	24696.46
735.66	24751.75
735.84	24956.55
736.03	24624.78
736.22	24729.22
736.40	24903.30
736.59	24579.72
736.78	24835.72
736.96	24856.20
737.15	24678.02
737.33	24565.39
737.52	24522.38
737.71	24434.32
737.89	24295.05
738.08	24422.03
738.27	24624.78
738.45	24768.13
738.64	24540.81
738.82	24618.63
739.01	24467.08
739.20	24483.47
739.38	24567.43
739.57	24608.39
739.75	24483.47
739.94	24235.66
740.13	24317.58
740.31	24282.77
740.50	24123.02
740.68	24112.78
740.87	24354.44
741.06	24231.57
741.24	24071.82
741.43	24057.49
741.61	24329.87
741.80	24161.94
741.99	23991.95
742.17	23920.28
742.36	24370.83
742.54	23744.15
742.73	24133.26
742.91	23953.04
743.10	24090.26
743.29	24082.06
743.47	23811.73
743.66	23916.18
743.84	24037.01
744.03	24102.54
744.21	23709.33
744.40	23944.85
744.59	23574.17
744.77	23768.73
744.96	23858.84
745.14	23639.70
745.33	23950.99
745.51	23738.01
745.70	23592.60
745.88	23443.10
746.07	23533.21
746.26	23475.87
746.44	23733.91
746.63	23662.23
746.81	23502.49
747.00	23477.91
747.18	23479.96
747.37	23316.12
747.55	23514.78
747.74	23625.37
747.92	23404.19
748.11	23529.11
748.29	23664.28
748.48	23371.42
748.66	23316.12
748.85	23113.38
749.03	23183.01
749.22	23219.87
749.41	23080.61
749.59	23398.04
749.78	23010.98
749.96	22927.01
750.15	23103.14
750.33	23244.45
750.52	23174.81
750.70	22931.11
750.89	22861.48
751.07	22699.69
751.26	23109.28
751.44	22906.53
751.63	22750.88
751.81	22673.06
752.00	22662.82
752.18	22759.08
752.37	22400.68
752.55	22455.98
752.74	22533.80
752.92	22668.97
753.10	22247.08
753.29	22769.32
753.47	22462.12
753.66	22259.37
753.84	22437.55
754.03	22521.51
754.21	22412.97
754.40	22458.03
754.58	22507.18
754.77	22541.99
754.95	22498.98
755.14	22429.35
755.32	22472.36
755.51	22034.10
755.69	22283.95
755.88	22310.57
756.06	22249.13
756.24	22058.67
756.43	22089.39
756.61	22374.06
756.80	21776.05
756.98	21685.94
757.17	22171.31
757.35	22189.74
757.54	22267.56
757.72	22185.65
757.90	21943.99
758.09	21962.42
758.27	21931.70
758.46	22034.10
758.64	21751.48
758.83	22023.86
759.01	22079.15
759.19	21814.96
759.38	21999.28
759.56	21919.41
759.75	21878.45
759.93	21718.71
760.12	21399.23
760.30	21585.59
760.48	21714.61
760.67	21706.42
760.85	21679.80
761.04	21671.61
761.22	21667.51
761.40	21616.31
761.59	21726.90
761.77	21528.25
761.96	21724.85
762.14	21479.10
762.32	21491.38
762.51	21315.26
762.69	21194.43
762.88	21233.34
763.06	21360.31
763.24	21257.92
763.43	21391.03
763.61	21300.92
763.80	21372.60
763.98	21161.66
764.16	21151.42
764.35	21139.13
764.53	21032.64
764.72	21065.41
764.90	20713.16
765.08	20895.43
765.27	21042.88
765.45	21006.02
765.63	20645.57
765.82	21126.85
766.00	20809.41
766.18	20764.36
766.37	20948.67
766.55	20700.87
766.74	20786.88
766.92	20889.28
767.10	20805.31
767.29	20733.64
767.47	20573.89
767.65	20666.05
767.84	20647.62
768.02	20569.80
768.20	20229.84
768.39	20424.39
768.57	20434.63
768.75	20379.34
768.94	20410.06
769.12	20451.02
769.30	20192.97
769.49	20055.76
769.67	19963.60
769.85	20168.40
770.04	20291.27
770.22	20309.71
770.40	20197.07
770.59	20006.61
770.77	20219.60
770.95	20106.96
771.14	19928.78
771.32	19908.30
771.50	19949.26
771.69	19945.17
771.87	20041.42
772.05	20068.05
772.24	20129.48
772.42	19975.89
772.60	20309.71
772.78	19660.50
772.97	19668.69
773.15	19844.82
773.33	19748.56
773.52	19734.23
773.70	20106.96
773.88	19838.67
774.07	19461.85
774.25	20133.58
774.43	19971.79
774.61	19963.60
774.80	19881.68
774.98	19889.87
775.16	19822.29
775.34	19879.63
775.53	19527.38
775.71	19904.21
775.89	19750.61
776.08	19853.01
776.26	19930.83
776.44	19707.60
776.62	19807.95
776.81	19838.67
776.99	20045.52
777.17	19861.20
777.35	19898.06
777.54	20025.04
777.72	19840.72
777.90	19746.51
778.08	19760.85
778.27	19818.19
778.45	20041.42
778.63	19859.15
778.81	19648.21
779.00	20170.44
779.18	19916.50
779.36	19984.08
779.54	20018.89
779.73	19947.22
779.91	20070.09
780.09	19771.09
780.27	19951.31
780.46	19891.92
780.64	20057.81
780.82	19834.58
781.00	19918.54
781.19	19982.03
781.37	19850.96
781.55	19842.77
781.73	19961.55
781.91	19951.31
782.10	20020.94
782.28	20059.85
782.46	20137.68
782.64	20039.37
782.82	19828.43
783.01	20119.24
783.19	19926.74
783.37	20088.53
783.55	19769.04
783.74	19928.78
783.92	19728.08
784.10	20084.43
784.28	20031.18
784.46	19771.09
784.64	19734.23
784.83	19490.52
785.01	20004.56
785.19	19916.50
785.37	19814.10
785.55	19863.25
785.74	19697.36
785.92	19652.31
786.10	19885.78
786.28	19967.70
786.46	19705.56
786.64	19547.86
786.83	19562.20
787.01	19848.91
787.19	19517.14
787.37	19412.70
787.55	19574.49
787.74	19175.13
787.92	19429.08
788.10	19322.59
788.28	19349.21
788.46	19459.80
788.64	19433.18
788.82	19451.61
789.01	19554.01
789.19	19502.81
789.37	19490.52
789.55	19238.62
789.73	19412.70
789.91	19218.14
790.09	19226.33
790.28	18970.33
790.46	19025.63
790.64	19351.26
790.82	19054.30
791.00	19085.02
791.18	18740.96
791.36	19050.21
791.55	18974.43
791.73	18851.55
791.91	18757.35
792.09	18968.29
792.27	18581.22
792.45	18777.83
792.63	19091.16
792.81	18562.79
793.00	18829.02
793.18	18728.67
793.36	18544.36
793.54	18603.75
793.72	18519.78
793.90	18429.67
794.08	18323.18
794.26	18697.95
794.44	18527.97
794.62	18470.63
794.81	18546.40
794.99	18339.56
795.17	18128.62
795.35	18128.62
795.53	18278.12
795.71	18433.77
795.89	18048.75
796.07	18044.65
796.25	18259.69
796.43	18056.94
796.61	17901.29
796.80	17729.27
796.98	17739.51
797.16	17452.79
797.34	17923.82
797.52	17569.52
797.70	17739.51
797.88	17762.03
798.06	17551.09
798.24	17534.71
798.42	17497.84
798.60	17544.95
798.78	17583.86
798.96	17536.76
799.14	17338.10
799.32	17651.44
799.51	17125.11
799.69	17209.08
799.87	17374.97
800.05	17133.31
800.23	17121.02
800.41	17043.20
800.59	17073.92
800.77	16989.95
800.95	16760.58
801.13	17045.24
801.31	16748.29
801.49	16883.45
801.67	16703.23
801.85	16668.42
802.03	16566.02
802.21	16752.38
802.39	16475.91
802.57	16400.13
802.75	16451.33
802.93	16375.56
803.11	16625.41
803.29	16615.17
803.47	16445.19
803.65	16262.92
803.83	16312.07
804.01	16527.11
804.19	16013.07
804.37	16254.73
804.55	16267.02
804.73	16181.00
804.91	16158.47
805.09	16262.92
805.27	15925.00
805.45	16391.94
805.63	16191.24
805.81	16068.36
805.99	16043.79
806.17	16125.71
806.35	16039.69
806.53	15691.54
806.71	15916.81
806.89	15771.41
807.07	15861.52
807.25	15714.06
807.43	15718.16
807.61	15726.35
807.79	15877.90
807.97	15525.65
808.15	15519.51
808.33	15572.75
808.51	15380.25
808.69	15427.35
808.87	15275.80
809.05	15480.60
809.23	15419.16
809.41	15324.95
809.59	15425.30
809.77	15312.66
809.95	15257.37
810.13	15124.25
810.31	15058.71
810.49	15316.76
810.67	15087.39
810.84	15042.33
811.02	15064.86
811.20	15054.62
811.38	14991.13
811.56	15068.95
811.74	14980.89
811.92	14925.60
812.10	14843.68
812.28	14958.36
812.46	14851.87
812.64	14759.71
812.82	14872.35
813.00	14898.97
813.18	14679.84
813.36	14851.87
813.53	14710.56
813.71	14653.22
813.89	14481.19
814.07	14700.32
814.25	14444.32
814.43	14616.35
814.61	14303.01
814.79	14559.01
814.97	14475.04
815.15	14270.25
815.33	14317.35
815.50	14352.16
815.68	14198.57
815.86	14348.07
816.04	14030.63
816.22	13989.67
816.40	14288.68
816.58	13844.27
816.76	13883.18
816.94	14071.59
817.11	14014.25
817.29	14004.01
817.47	14010.15
817.65	14022.44
817.83	13782.83
818.01	13852.46
818.19	13856.56
818.37	13715.25
818.54	13707.05
818.72	13530.93
818.90	13811.50
819.08	13823.79
819.26	13563.70
819.44	13582.13
819.62	13727.53
819.80	13524.79
819.97	13760.30
820.15	13621.04
820.33	13449.01
820.51	13434.68
820.69	13590.32
820.87	13412.15
821.05	13602.61
821.22	13418.29
821.40	13483.83
821.58	13453.11
821.76	13432.63
821.94	13379.38
822.12	13348.66
822.29	13248.31
822.47	13365.04
822.65	13324.08
822.83	13260.60
823.01	13236.02
823.19	13315.89
823.36	13143.86
823.54	13145.91
823.72	12973.88
823.90	13117.24
824.08	13049.66
824.25	12998.46
824.43	12988.22
824.61	12914.49
824.79	12906.30
824.97	12947.26
825.15	13248.31
825.32	12945.21
825.50	12824.38
825.68	13012.79
825.86	12738.37
826.04	12953.40
826.21	12842.81
826.39	12879.68
826.57	12783.42
826.75	12801.85
826.93	13004.60
827.10	12738.37
827.28	12746.56
827.46	12595.01
827.64	12678.97
827.81	12552.00
827.99	12726.08
828.17	12590.91
828.35	12648.26
828.53	12513.09
828.70	12496.71
828.88	12441.41
829.06	12490.56
829.24	12586.82
829.41	12351.30
829.59	12504.90
829.77	12431.17
829.95	12322.63
830.12	12517.18
830.30	12353.35
830.48	12152.65
830.66	12189.51
830.84	12150.60
831.01	12277.57
831.19	12175.17
831.37	12203.85
831.55	12263.24
831.72	12242.76
831.90	12197.70
832.08	12228.42
832.25	12166.98
832.43	12279.62
832.61	12130.12
832.79	11802.44
832.96	12128.07
833.14	12076.87
833.32	12035.91
833.50	12126.02
833.67	11880.27
833.85	12076.87
834.03	11814.73
834.20	12085.06
834.38	11872.07
834.56	11900.75
834.74	11685.71
834.91	11921.23
835.09	11644.75
835.27	11536.21
835.44	11673.42
835.62	11515.73
835.80	11638.61
835.98	11611.98
836.15	11427.67
836.33	11620.17
836.51	11579.22
836.68	11691.85
836.86	11626.32
837.04	11491.15
837.21	11634.51
837.39	11681.61
837.57	11472.72
837.75	11501.39
837.92	11237.20
838.10	11476.82
838.28	11378.51
838.45	11517.78
838.63	11525.97
838.81	11286.36
838.98	11143.00
839.16	11317.08
839.34	11251.54
839.51	11372.37
839.69	11163.48
839.87	11214.68
840.04	11102.04
840.22	11343.70
840.40	11077.46
840.57	11274.07
840.75	11036.50
840.93	11079.51
841.10	11075.42
841.28	11292.50
841.46	11085.65
841.63	11155.29
841.81	10997.59
841.98	11237.20
842.16	11116.37
842.34	11229.01
842.51	11003.74
842.69	11255.64
842.87	11114.33
843.04	10768.22
843.22	10993.50
843.40	10925.91
843.57	10927.96
843.75	11061.08
843.92	10993.50
844.10	11028.31
844.28	10874.71
844.45	10841.95
844.63	10751.84
844.81	10813.28
844.98	10796.89
845.16	10770.27
845.33	10753.88
845.51	10731.36
845.69	10856.28
845.86	10696.54
846.04	10792.80
846.21	10569.57
846.39	10710.88
846.57	10504.03
846.74	10661.73
846.92	10600.29
847.09	10686.30
847.27	10391.39
847.45	10385.25
847.62	10422.11
847.80	10780.51
847.97	10542.94
848.15	10551.14
848.32	10383.20
848.50	10542.94
848.68	10409.83
848.85	10305.38
849.03	10422.11
849.20	10377.06
849.38	10282.85
849.56	10356.58
849.73	10162.02
849.91	10471.26
850.08	10411.87
850.26	10233.70
850.43	10311.52
850.61	10260.32
850.78	10071.91
850.96	10364.77
851.14	10172.26
851.31	10280.80
851.49	10159.97
851.66	10149.73
851.84	10202.98
852.01	10241.89
852.19	10299.23
852.36	10061.67
852.54	10086.25
852.71	10039.14
852.89	9875.31
853.07	10153.83
853.24	10133.35
853.42	10084.20
853.59	9963.37
853.77	9981.80
853.94	10037.09
854.12	10342.24
854.29	9766.76
854.47	9926.50
854.64	10059.62
854.82	9791.34
854.99	9938.79
855.17	9953.13
855.34	9566.06
855.52	9770.86
855.69	9996.14
855.87	9652.08
856.04	9944.94
856.22	9799.53
856.39	9707.37
856.57	9826.15
856.74	9797.48
856.92	9727.85
857.09	9635.69
857.27	9607.02
857.44	9647.98
857.62	9570.16
857.79	9676.65
857.97	9641.84
858.14	9592.69
858.32	9547.63
858.49	9703.28
858.67	9594.73
858.84	9574.25
859.02	9351.03
859.19	9533.29
859.37	9508.72
859.54	9455.47
859.72	9496.43
859.89	9549.68
860.06	9518.96
860.24	9267.06
860.41	9553.77
860.59	9308.02
860.76	9447.28
860.94	9320.31
861.11	9615.21
861.29	9437.04
861.46	9273.20
861.64	9351.03
861.81	9434.99
861.98	9232.24
862.16	9246.58
862.33	9211.76
862.51	9193.33
862.68	9248.63
862.86	9361.27
863.03	9037.69
863.21	9250.67
863.38	9187.19
863.55	9041.78
863.73	8998.77
863.90	9285.49
864.08	9103.22
864.25	9070.45
864.43	9305.97
864.60	9131.89
864.77	8957.82
864.95	8912.76
865.12	9082.74
865.30	9004.92
865.47	8879.99
865.64	8927.10
865.82	9058.17
865.99	9019.25
866.17	8927.10
866.34	8877.94
866.51	8816.51
866.69	8955.77
866.86	8828.79
867.04	8820.60
867.21	8914.81
867.38	8787.83
867.56	8824.70
867.73	8724.35
867.91	8656.76
868.08	8804.22
868.25	8734.59
868.43	8740.73
868.60	8742.78
868.78	8468.35
868.95	8775.55
869.12	8722.30
869.30	8535.93
869.47	8763.26
869.64	8662.91
869.82	8464.25
869.99	8447.87
870.16	8669.05
870.34	8658.81
870.51	8523.65
870.69	8531.84
870.86	8484.73
871.03	8572.80
871.21	8368.00
871.38	8603.52
871.55	8406.91
871.73	8218.50
871.90	8406.91
872.07	8249.22
872.25	8247.17
872.42	8312.71
872.59	8277.89
872.77	8273.79
872.94	8193.92
873.11	8382.34
873.29	8232.83
873.46	8226.69
873.63	8222.59
873.81	8183.68
873.98	8320.90
874.15	8107.91
874.33	8056.71
874.50	8087.43
874.67	8134.53
874.85	8025.99
875.02	8167.30
875.19	8062.85
875.37	7913.35
875.54	7790.47
875.71	7933.83
875.88	7864.20
876.06	8007.56
876.23	8054.66
876.40	8058.76
876.58	7894.92
876.75	7767.95
876.92	7884.68
877.10	7987.08
877.27	7747.47
877.44	7835.53
877.61	7675.79
877.79	7743.37
877.96	7802.76
878.13	7626.64
878.31	7628.68
878.48	7694.22
878.65	7571.34
878.82	7380.88
879.00	7532.43
879.17	7643.02
879.34	7542.67
879.51	7557.00
879.69	7458.70
879.86	7638.92
880.03	7550.86
880.21	7571.34
880.38	7544.72
880.55	7630.73
880.72	7395.22
880.90	7624.59
881.07	7401.36
881.24	7735.18
881.41	7438.22
881.59	7362.45
881.76	7366.54
881.93	7176.08
882.10	7315.34
882.28	7440.27
882.45	7411.60
882.62	7235.47
882.79	7370.64
882.96	7241.62
883.14	7284.62
883.31	7370.64
883.48	7329.68
883.65	7161.75
883.83	7317.39
884.00	7274.38
884.17	7350.16
884.34	7395.22
884.51	7161.75
884.69	7395.22
884.86	7260.05
885.03	7335.82
885.20	7282.58
885.38	7190.42
885.55	7186.32
885.72	7280.53
885.89	7169.94
886.06	7202.71
886.24	7126.93
886.41	7186.32
886.58	7239.57
886.75	7214.99
886.92	7198.61
887.10	7225.23
887.27	7118.74
887.44	7208.85
887.61	7268.24
887.78	7176.08
887.95	7047.06
888.13	7104.40
888.30	7036.82
888.47	7088.02
888.64	7143.32
888.81	7116.69
888.99	6973.33
889.16	7057.30
889.33	6868.89
889.50	6930.33
889.67	7020.44
889.84	6862.74
890.01	6870.94
890.19	7036.82
890.36	6879.13
890.53	6860.70
890.70	6852.50
890.87	6899.61
891.04	6854.55
891.22	6907.80
891.39	6928.28
891.56	6815.64
891.73	6829.98
891.90	6713.24
892.07	6801.30
892.24	6770.58
892.42	6719.39
892.59	6854.55
892.76	6549.40
892.93	6748.06
893.10	6780.82
893.27	6662.04
893.44	6676.38
893.61	6668.19
893.79	6784.92
893.96	6666.14
894.13	6651.80
894.30	6625.18
894.47	6637.47
894.64	6772.63
894.81	6653.85
894.98	6649.75
895.15	6743.96
895.33	6612.89
895.50	6627.23
895.67	6584.22
895.84	6670.23
896.01	6559.64
896.18	6465.44
896.35	6748.06
896.52	6530.97
896.69	6479.77
896.86	6604.70
897.04	6424.48
897.21	6500.25
897.38	6561.69
897.55	6389.66
897.72	6631.32
897.89	6512.54
898.06	6623.13
898.23	6578.08
898.40	6494.11
898.57	6498.20
898.74	6559.64
898.91	6487.96
899.08	6387.61
899.26	6436.77
899.43	6508.44
899.60	6377.37
899.77	6461.34
899.94	6487.96
900.11	6399.90
900.28	6375.33
900.45	6492.06
900.62	6436.77
900.79	6465.44
900.96	6348.70
901.13	6334.37
901.30	6469.53
901.47	6365.09
901.64	6440.86
901.81	6487.96
901.98	6346.66
902.15	6477.73
902.32	6315.94
902.49	6289.31
902.66	6365.09
902.83	6356.90
903.01	6338.46
903.18	6252.45
903.35	6545.31
903.52	6223.78
903.69	6360.99
903.86	6547.36
904.03	6254.50
904.20	6285.22
904.37	6274.98
904.54	6406.05
904.71	6399.90
904.88	6211.49
905.05	6264.74
905.22	6436.77
905.39	6377.37
905.56	6305.70
905.73	6078.37
905.90	6494.11
906.07	6281.12
906.24	6344.61
906.41	6205.35
906.58	6199.20
906.75	6348.70
906.92	6211.49
907.09	6287.26
907.26	6260.64
907.43	6328.22
907.60	6199.20
907.77	6250.40
907.93	6221.73
908.10	6317.98
908.27	6291.36
908.44	6238.11
908.61	6266.78
908.78	6277.02
908.95	6231.97
909.12	6172.58
909.29	6199.20
909.46	6150.05
909.63	6248.35
909.80	6193.06
909.97	6277.02
910.14	6172.58
910.31	6102.95
910.48	6246.30
910.65	6274.98
910.82	6084.52
910.99	6156.19
911.16	6125.47
911.33	6137.76
911.50	6203.30
911.66	5971.88
911.83	6080.42
912.00	5996.45
912.17	6027.17
912.34	6037.41
912.51	6059.94
912.68	6053.80
912.85	6010.79
913.02	6055.84
913.19	5939.11
913.36	6018.98
913.53	6109.09
913.70	5961.64
913.86	5961.64
914.03	5877.67
914.20	6039.46
914.37	5961.64
914.54	5898.15
914.71	5953.45
914.88	5953.45
915.05	5957.54
915.22	5963.68
915.39	5783.46
915.55	5990.31
915.72	5808.04
915.89	5902.25
916.06	5873.57
916.23	5787.56
916.40	5859.24
916.57	5746.60
916.74	5869.48
916.91	5728.17
917.07	5822.38
917.24	5728.17
917.41	5715.88
917.58	5668.78
917.75	5719.98
917.92	5562.28
918.09	5717.93
918.26	5562.28
918.42	5703.59
918.59	5615.53
918.76	5537.71
918.93	5611.43
919.10	5550.00
919.27	5423.02
919.44	5517.23
919.60	5709.74
919.77	5527.47
919.94	5377.97
920.11	5406.64
920.28	5420.97
920.45	5369.77
920.61	5304.24
920.78	5353.39
920.95	5484.46
921.12	5373.87
921.29	5449.64
921.46	5337.01
921.62	5263.28
921.79	5164.98
921.96	5242.80
922.13	5250.99
922.30	5195.70
922.47	5164.98
922.63	5207.98
922.80	5187.50
922.97	5158.83
923.14	5083.06
923.31	5197.74
923.47	5031.86
923.64	5199.79
923.81	5187.50
923.98	5078.96
924.15	5052.34
924.32	5058.48
924.48	5121.97
924.65	5212.08
924.82	4833.21
924.99	4921.27
925.15	4931.51
925.32	5033.91
925.49	4878.26
925.66	4937.65
925.83	4741.05
925.99	4822.97
926.16	4800.44
926.33	4739.00
926.50	4784.06
926.67	4745.14
926.83	4759.48
927.00	4829.11
927.17	4730.81
927.34	4607.93
927.50	4644.79
927.67	4753.34
927.84	4614.07
928.01	4632.51
928.17	4616.12
928.34	4614.07
928.51	4558.78
928.68	4575.16
928.84	4509.63
929.01	4583.35
929.18	4546.49
929.35	4597.69
929.51	4521.92
929.68	4374.46
929.85	4405.18
930.02	4474.81
930.18	4560.83
930.35	4464.57
930.52	4421.56
930.69	4542.39
930.85	4198.34
931.02	4251.58
931.19	4290.49
931.36	4319.17
931.52	4452.28
931.69	4288.45
931.86	4218.82
932.02	4278.21
932.19	4308.93
932.36	4261.82
932.53	4302.78
932.69	4161.47
932.86	4171.71
933.03	4308.93
933.19	4218.82
933.36	4052.93
933.53	4218.82
933.70	4095.94
933.86	4145.09
934.03	4046.79
934.20	3981.25
934.36	4114.37
934.53	4032.45
934.70	3874.76
934.86	3934.15
935.03	3829.70
935.20	3772.36
935.36	3788.74
935.53	3876.80
935.70	3751.88
935.86	3889.09
936.03	3743.69
936.20	3741.64
936.36	3762.12
936.53	3710.92
936.70	3721.16
936.86	3702.73
937.03	3647.43
937.20	3592.14
937.36	3649.48
937.53	3452.88
937.70	3530.70
937.86	3497.93
938.03	3567.56
938.20	3534.79
938.36	3463.12
938.53	3475.40
938.70	3385.29
938.86	3383.24
939.03	3280.85
939.20	3340.24
939.36	3327.95
939.53	3237.84
939.70	3323.85
939.86	3151.82
940.03	3172.30
940.19	3133.39
940.36	3076.05
940.53	3123.15
940.69	3151.82
940.86	3051.47
941.03	3047.38
941.19	2959.31
941.36	3076.05
941.52	2983.89
941.69	2889.68
941.86	2881.49
942.02	2979.79
942.19	2867.16
942.35	2899.92
942.52	2842.58
942.69	2881.49
942.85	2875.35
943.02	2832.34
943.18	2828.24
943.35	2938.84
943.52	2795.48
943.68	2680.79
943.85	2789.33
944.01	2787.29
944.18	2727.89
944.35	2901.97
944.51	2752.47
944.68	2600.92
944.84	2654.17
945.01	2600.92
945.17	2738.13
945.34	2656.22
945.51	2699.22
945.67	2691.03
945.84	2645.98
946.00	2613.21
946.17	2533.34
946.33	2545.63
946.50	2705.37
946.67	2508.76
946.83	2617.30
947.00	2650.07
947.16	2537.43
947.33	2576.34
947.49	2543.58
947.66	2541.53
947.82	2586.58
947.99	2602.97
948.16	2535.39
948.32	2645.98
948.49	2576.34
948.65	2592.73
948.82	2559.96
948.98	2545.63
949.15	2514.91
949.31	2574.30
949.48	2555.86
949.64	2549.72
949.81	2543.58
949.97	2459.61
950.14	2510.81
950.30	2537.43
950.47	2525.15
950.63	2629.59
950.80	2617.30
950.96	2500.57
951.13	2539.48
951.30	2531.29
951.46	2529.24
951.63	2600.92
951.79	2519.00
951.96	2562.01
952.12	2478.04
952.29	2523.10
952.45	2510.81
952.62	2486.23
952.78	2459.61
952.94	2492.38
953.11	2547.67
953.27	2443.23
953.44	2469.85
953.60	2510.81
953.77	2547.67
953.93	2473.95
954.10	2504.67
954.26	2473.95
954.43	2482.14
954.59	2527.19
954.76	2512.86
954.92	2445.27
955.09	2490.33
955.25	2492.38
955.42	2506.71
955.58	2547.67
955.75	2553.82
955.91	2424.80
956.07	2449.37
956.24	2402.27
956.40	2496.47
956.57	2519.00
956.73	2492.38
956.90	2445.27
957.06	2471.90
957.23	2461.66
957.39	2484.19
957.56	2449.37
957.72	2426.84
957.88	2424.80
958.05	2521.05
958.21	2582.49
958.38	2428.89
958.54	2418.65
958.71	2557.91
958.87	2371.55
959.03	2342.88
959.20	2449.37
959.36	2400.22
959.53	2435.03
959.69	2402.27
959.85	2451.42
960.02	2377.69
960.18	2414.56
960.35	2387.93
960.51	2498.52
960.68	2389.98
960.84	2453.47
961.00	2424.80
961.17	2453.47
961.33	2410.46
961.50	2459.61
961.66	2359.26
961.82	2328.54
961.99	2387.93
962.15	2275.29
962.31	2459.61
962.48	2414.56
962.64	2422.75
962.81	2389.98
962.97	2449.37
963.13	2373.60
963.30	2361.31
963.46	2316.25
963.62	2387.93
963.79	2408.41
963.95	2445.27
964.12	2353.12
964.28	2389.98
964.44	2332.64
964.61	2400.22
964.77	2428.89
964.93	2449.37
965.10	2254.81
965.26	2387.93
965.42	2387.93
965.59	2256.86
965.75	2402.27
965.92	2443.23
966.08	2344.92
966.24	2471.90
966.41	2326.49
966.57	2394.08
966.73	2480.09
966.90	2363.36
967.06	2322.40
967.22	2316.25
967.39	2308.06
967.55	2318.30
967.71	2310.11
967.88	2332.64
968.04	2287.58
968.20	2330.59
968.37	2322.40
968.53	2299.87
968.69	2297.82
968.85	2336.73
969.02	2351.07
969.18	2351.07
969.34	2381.79
969.51	2275.29
969.67	2375.64
969.83	2213.85
970.00	2318.30
970.16	2283.49
970.32	2250.72
970.48	2299.87
970.65	2263.01
970.81	2299.87
970.97	2260.96
971.14	2213.85
971.30	2303.96
971.46	2238.43
971.63	2373.60
971.79	2299.87
971.95	2201.57
972.11	2256.86
972.28	2256.86
972.44	2338.78
972.60	2224.09
972.76	2236.38
972.93	2240.48
973.09	2297.82
973.25	2306.01
973.42	2197.47
973.58	2299.87
973.74	2160.61
973.90	2283.49
974.07	2275.29
974.23	2269.15
974.39	2297.82
974.55	2211.81
974.72	2308.06
974.88	2183.13
975.04	2174.94
975.20	2242.53
975.37	2195.42
975.53	2195.42
975.69	2254.81
975.85	2146.27
976.01	2160.61
976.18	2148.32
976.34	2224.09
976.50	2246.62
976.66	2260.96
976.83	2222.05
976.99	2242.53
977.15	2213.85
977.31	2125.79
977.47	2187.23
977.64	2117.60
977.80	2222.05
977.96	2269.15
978.12	2076.64
978.29	2174.94
978.45	2131.94
978.61	2138.08
978.77	2138.08
978.93	2205.66
979.10	2160.61
979.26	2140.13
979.42	2185.18
979.58	2160.61
979.74	2066.40
979.91	2156.51
980.07	2119.65
980.23	2111.46
980.39	2039.78
980.55	2123.74
980.71	2076.64
980.88	2189.28
981.04	2072.54
981.20	2105.31
981.36	2156.51
981.52	2162.66
981.68	2121.70
981.85	2068.45
982.01	2140.13
982.17	2068.45
982.33	2142.18
982.49	2144.22
982.65	2109.41
982.82	2113.50
982.98	2226.14
983.14	2113.50
983.30	2088.93
983.46	2154.46
983.62	2066.40
983.79	2035.68
983.95	2101.22
984.11	2025.44
984.27	2150.37
984.43	2088.93
984.59	2002.91
984.75	2058.21
984.91	2074.59
985.08	2002.91
985.24	1974.24
985.40	2000.87
985.56	2027.49
985.72	2138.08
985.88	2121.70
986.04	1972.19
986.20	2050.02
986.37	2017.25
986.53	2080.74
986.69	2107.36
986.85	1978.34
987.01	1980.39
987.17	2129.89
987.33	1996.77
987.49	1957.86
987.65	2060.26
987.82	2086.88
987.98	1949.67
988.14	2007.01
988.30	1976.29
988.46	1953.76
988.62	2025.44
988.78	1959.91
988.94	2031.58
989.10	2066.40
989.26	2019.30
989.42	2084.83
989.59	2025.44
989.75	2052.06
989.91	2019.30
990.07	1988.58
990.23	1970.15
990.39	2093.02
990.55	2011.11
990.71	1929.19
990.87	1968.10
991.03	2017.25
991.19	2009.06
991.35	1945.57
991.51	1992.67
991.67	1992.67
991.83	1974.24
992.00	2011.11
992.16	1994.72
992.32	1941.47
992.48	2043.87
992.64	1927.14
992.80	1968.10
992.96	1982.43
993.12	1966.05
993.28	2041.82
993.44	1990.63
993.60	1990.63
993.76	2066.40
993.92	2090.98
994.08	1978.34
994.24	1957.86
994.40	1976.29
994.56	2054.11
994.72	1916.90
994.88	1912.80
995.04	1939.43
995.20	1820.64
995.36	1937.38
995.52	1972.19
995.68	1998.82
995.84	1945.57
996.00	1927.14
996.16	1855.46
996.32	1841.12
996.48	1914.85
996.64	1978.34
996.80	1947.62
996.96	1935.33
997.12	1898.47
997.28	1906.66
997.44	1906.66
997.60	1898.47
997.76	1863.65
997.92	1914.85
998.08	1861.60
998.24	1933.28
998.40	1902.56
998.56	1972.19
998.72	1869.80
998.88	1865.70
999.04	1925.09
999.20	1968.10
999.36	1820.64
999.52	1886.18
999.68	1939.43
999.84	1937.38
1000.00	1916.90
1000.16	1908.71
1000.32	1869.80
1000.48	1906.66
1000.64	1892.32
1000.80	1902.56
1000.95	1859.56
1001.11	1894.37
1001.27	1804.26
1001.43	1898.47
1001.59	1837.03
1001.75	1765.35
1001.91	1894.37
1002.07	1798.12
1002.23	1800.16
1002.39	1920.99
1002.55	1859.56
1002.71	1810.40
1002.87	1880.04
1003.03	1826.79
1003.19	1873.89
1003.34	1877.99
1003.50	1822.69
1003.66	1890.28
1003.82	1875.94
1003.98	1855.46
1004.14	1785.83
1004.30	1877.99
1004.46	1789.92
1004.62	1873.89
1004.78	1867.75
1004.94	1822.69
1005.09	1837.03
1005.25	1890.28
1005.41	1783.78
1005.57	1847.27
1005.73	1828.84
1005.89	1755.11
1006.05	1806.31
1006.21	1849.32
1006.37	1753.06
1006.52	1773.54
1006.68	1753.06
1006.84	1865.70
1007.00	1822.69
1007.16	1761.25
1007.32	1898.47
1007.48	1791.97
1007.64	1773.54
1007.79	1798.12
1007.95	1820.64
1008.11	1869.80
1008.27	1841.12
1008.43	1777.64
1008.59	1785.83
1008.75	1828.84
1008.91	1855.46
1009.06	1791.97
1009.22	1802.21
1009.38	1800.16
1009.54	1806.31
1009.70	1730.53
1009.86	1755.11
1010.01	1816.55
1010.17	1742.82
1010.33	1877.99
1010.49	1800.16
1010.65	1779.68
1010.81	1761.25
1010.96	1757.16
1011.12	1751.01
1011.28	1716.20
1011.44	1802.21
1011.60	1740.77
1011.76	1720.29
1011.91	1753.06
1012.07	1732.58
1012.23	1710.05
1012.39	1794.02
1012.55	1751.01
1012.71	1732.58
1012.86	1726.44
1013.02	1761.25
1013.18	1714.15
1013.34	1808.36
1013.50	1746.92
1013.65	1746.92
1013.81	1687.53
1013.97	1753.06
1014.13	1728.49
1014.29	1798.12
1014.44	1791.97
1014.60	1751.01
1014.76	1771.49
1014.92	1759.21
1015.07	1720.29
1015.23	1779.68
1015.39	1689.57
1015.55	1740.77
1015.71	1722.34
1015.86	1722.34
1016.02	1740.77
1016.18	1718.25
1016.34	1699.81
1016.49	1740.77
1016.65	1683.43
1016.81	1683.43
1016.97	1728.49
1017.12	1841.12
1017.28	1740.77
1017.44	1708.01
1017.60	1662.95
1017.75	1697.77
1017.91	1755.11
1018.07	1742.82
1018.23	1773.54
1018.38	1697.77
1018.54	1748.97
1018.70	1738.73
1018.86	1699.81
1019.01	1632.23
1019.17	1712.10
1019.33	1824.74
1019.49	1705.96
1019.64	1699.81
1019.80	1638.38
1019.96	1671.14
1020.12	1662.95
1020.27	1656.81
1020.43	1773.54
1020.59	1730.53
1020.74	1728.49
1020.90	1740.77
1021.06	1699.81
1021.22	1644.52
1021.37	1644.52
1021.53	1646.57
1021.69	1654.76
1021.84	1656.81
1022.00	1611.75
1022.16	1697.77
1022.31	1742.82
1022.47	1630.18
1022.63	1640.42
1022.79	1652.71
1022.94	1671.14
1023.10	1689.57
1023.26	1732.58
1023.41	1691.62
1023.57	1611.75
1023.73	1705.96
1023.88	1679.33
1024.04	1642.47
1024.20	1714.15
1024.35	1679.33
1024.51	1683.43
1024.67	1646.57
1024.82	1710.05
1024.98	1662.95
1025.14	1683.43
1025.29	1710.05
1025.45	1689.57
1025.61	1675.24
1025.76	1640.42
1025.92	1716.20
1026.08	1689.57
1026.23	1687.53
1026.39	1658.85
1026.55	1605.61
1026.70	1558.50
1026.86	1679.33
1027.02	1718.25
1027.17	1679.33
1027.33	1646.57
1027.48	1673.19
1027.64	1607.66
1027.80	1605.61
1027.95	1630.18
1028.11	1591.27
1028.27	1572.84
1028.42	1634.28
1028.58	1722.34
1028.73	1589.22
1028.89	1603.56
1029.05	1662.95
1029.20	1658.85
>>>>>End Processed Spectral Data<<<<<
