SpectraSuite Data File
++++++++++++++++++++++++++++++++++++
Date: Tue Jun 13 11:50:59 CEST 2017
User: INFO_000
Dark Spectrum Present: No
Reference Spectrum Present: No
Number of Sampled Component Spectra: 1
Spectrometers: USB4H00879
Integration Time (usec): 30000 (USB4H00879)
Spectra Averaged: 1 (USB4H00879)
Boxcar Smoothing: 0 (USB4H00879)
Correct for Electrical Dark: No (USB4H00879)
Strobe/Lamp Enabled: No (USB4H00879)
Correct for Detector Non-linearity: No (USB4H00879)
Correct for Stray Light: No (USB4H00879)
Number of Pixels in Processed Spectrum: 3648
>>>>>Begin Processed Spectral Data<<<<<
345.13	1366.00
345.34	1366.00
345.56	1366.00
345.78	1316.84
345.99	1294.32
346.21	1427.43
346.42	1566.70
346.64	1486.83
346.86	1554.41
347.07	1503.21
347.29	1509.35
347.50	1533.93
347.72	1521.64
347.94	1531.88
348.15	1423.34
348.37	1425.39
348.59	1484.78
348.80	1468.39
349.02	1636.33
349.23	1630.18
349.45	1595.37
349.67	1638.38
349.88	1605.61
350.10	1681.38
350.31	1636.33
350.53	1488.87
350.75	1673.19
350.96	1519.59
351.18	1671.14
351.39	1626.09
351.61	1665.00
351.82	1681.38
352.04	1716.20
352.26	1720.29
352.47	1607.66
352.69	1753.06
352.90	1634.28
353.12	1619.94
353.34	1650.66
353.55	1669.09
353.77	1671.14
353.98	1607.66
354.20	1701.86
354.41	1738.73
354.63	1679.33
354.85	1716.20
355.06	1679.33
355.28	1611.75
355.49	1613.80
355.71	1611.75
355.92	1642.47
356.14	1685.48
356.35	1699.81
356.57	1609.70
356.79	1708.01
357.00	1667.05
357.22	1675.24
357.43	1640.42
357.65	1685.48
357.86	1648.61
358.08	1705.96
358.29	1712.10
358.51	1753.06
358.72	1753.06
358.94	1755.11
359.16	1671.14
359.37	1689.57
359.59	1701.86
359.80	1734.63
360.02	1722.34
360.23	1734.63
360.45	1787.88
360.66	1773.54
360.88	1701.86
361.09	1742.82
361.31	1806.31
361.52	1708.01
361.74	1771.49
361.95	1679.33
362.17	1753.06
362.38	1732.58
362.60	1740.77
362.81	1730.53
363.03	1771.49
363.24	1673.19
363.46	1775.59
363.67	1771.49
363.89	1763.30
364.10	1699.81
364.32	1804.26
364.53	1798.12
364.75	1791.97
364.96	1830.88
365.18	1859.56
365.39	1775.59
365.61	1728.49
365.82	1857.51
366.04	1806.31
366.25	1787.88
366.47	1851.36
366.68	1820.64
366.90	1806.31
367.11	1824.74
367.33	1832.93
367.54	1933.28
367.76	1841.12
367.97	1890.28
368.19	1785.83
368.40	1890.28
368.62	1761.25
368.83	1720.29
369.05	1834.98
369.26	1816.55
369.48	1794.02
369.69	1779.68
369.91	1716.20
370.12	1767.40
370.33	1912.80
370.55	1847.27
370.76	1884.13
370.98	1820.64
371.19	1830.88
371.41	1820.64
371.62	1816.55
371.84	1894.37
372.05	1976.29
372.27	1886.18
372.48	1818.60
372.69	1867.75
372.91	1920.99
373.12	1882.08
373.34	1906.66
373.55	2000.87
373.77	1884.13
373.98	1931.23
374.20	1920.99
374.41	1980.39
374.62	1998.82
374.84	1923.04
375.05	1933.28
375.27	1994.72
375.48	2039.78
375.70	1935.33
375.91	1982.43
376.12	2009.06
376.34	2009.06
376.55	1996.77
376.77	2013.15
376.98	2033.63
377.19	2039.78
377.41	1951.71
377.62	2021.35
377.84	2056.16
378.05	2033.63
378.27	1994.72
378.48	2025.44
378.69	2129.89
378.91	2068.45
379.12	2148.32
379.34	2045.92
379.55	2099.17
379.76	2047.97
379.98	2045.92
380.19	2041.82
380.41	2070.50
380.62	2144.22
380.83	2002.91
381.05	2084.83
381.26	2242.53
381.47	2168.80
381.69	2105.31
381.90	2217.95
382.12	2166.75
382.33	2109.41
382.54	2140.13
382.76	2152.42
382.97	2160.61
383.19	2160.61
383.40	2185.18
383.61	2140.13
383.83	2203.61
384.04	2170.85
384.25	2088.93
384.47	2252.77
384.68	2310.11
384.89	2172.89
385.11	2191.33
385.32	2166.75
385.54	2193.37
385.75	2191.33
385.96	2363.36
386.18	2308.06
386.39	2322.40
386.60	2283.49
386.82	2387.93
387.03	2322.40
387.24	2342.88
387.46	2377.69
387.67	2371.55
387.88	2404.32
388.10	2328.54
388.31	2422.75
388.52	2441.18
388.74	2394.08
388.95	2375.64
389.16	2371.55
389.38	2396.12
389.59	2428.89
389.80	2492.38
390.02	2428.89
390.23	2535.39
390.44	2410.46
390.66	2459.61
390.87	2494.43
391.08	2471.90
391.30	2598.87
391.51	2637.78
391.72	2527.19
391.94	2592.73
392.15	2559.96
392.36	2512.86
392.58	2541.53
392.79	2533.34
393.00	2549.72
393.22	2590.68
393.43	2633.69
393.64	2564.06
393.85	2662.36
394.07	2635.74
394.28	2623.45
394.49	2734.04
394.71	2615.26
394.92	2699.22
395.13	2725.85
395.35	2725.85
395.56	2740.18
395.77	2648.02
395.98	2793.43
396.20	2869.20
396.41	2791.38
396.62	2799.57
396.84	2748.37
397.05	2867.16
397.26	2875.35
397.47	2830.29
397.69	2836.44
397.90	2889.68
398.11	2840.53
398.32	2789.33
398.54	2897.88
398.75	2928.60
398.96	2992.08
399.18	3090.38
399.39	2994.13
399.60	3026.90
399.81	2871.25
400.03	2979.79
400.24	3039.19
400.45	3018.71
400.66	2965.46
400.88	3102.67
401.09	3166.16
401.30	2979.79
401.51	3041.23
401.73	3082.19
401.94	3069.91
402.15	3145.68
402.36	3139.54
402.58	3194.83
402.79	3164.11
403.00	3231.69
403.21	3190.74
403.43	3256.27
403.64	3299.28
403.85	3149.78
404.06	3256.27
404.27	3176.40
404.49	3246.03
404.70	3356.62
404.91	3229.65
405.12	3225.55
405.34	3213.26
405.55	3299.28
405.76	3207.12
405.97	3260.37
406.19	3426.25
406.40	3307.47
406.61	3377.10
406.82	3426.25
407.03	3313.61
407.25	3364.81
407.46	3313.61
407.67	3448.78
407.88	3520.46
408.09	3499.98
408.31	3321.81
408.52	3514.31
408.73	3399.63
408.94	3487.69
409.15	3571.66
409.37	3581.90
409.58	3626.95
409.79	3631.05
410.00	3614.66
410.21	3518.41
410.43	3569.61
410.64	3481.55
410.85	3633.10
411.06	3622.86
411.27	3604.42
411.48	3651.53
411.70	3682.25
411.91	3794.89
412.12	3712.97
412.33	3655.62
412.54	3766.21
412.76	3790.79
412.97	3778.50
413.18	3585.99
413.39	3672.01
413.60	3850.18
413.81	3743.69
414.03	3833.80
414.24	3872.71
414.45	3979.20
414.66	3764.17
414.87	3870.66
415.08	3741.64
415.30	3958.72
415.51	3909.57
415.72	3948.48
415.93	3944.39
416.14	4003.78
416.35	3928.00
416.56	3878.85
416.78	4095.94
416.99	3987.40
417.20	4083.65
417.41	4020.16
417.62	4020.16
417.83	4282.30
418.04	4059.07
418.26	4229.06
418.47	4075.46
418.68	4179.90
418.89	4140.99
419.10	4155.33
419.31	4128.70
419.52	4196.29
419.73	4192.19
419.95	4227.01
420.16	4372.41
420.37	4302.78
420.58	4304.83
420.79	4259.78
421.00	4413.37
421.21	4396.99
421.42	4378.56
421.63	4376.51
421.85	4329.41
422.06	4599.74
422.27	4505.53
422.48	4448.19
422.69	4650.94
422.90	4642.75
423.11	4640.70
423.32	4706.23
423.53	4673.46
423.75	4655.03
423.96	4710.33
424.17	4534.20
424.38	4794.29
424.59	4743.10
424.80	4831.16
425.01	4790.20
425.22	4796.34
425.43	4812.73
425.64	5038.00
425.85	5042.10
426.06	4974.52
426.28	5007.28
426.49	4872.12
426.70	4931.51
426.91	4925.36
427.12	5003.19
427.33	4997.04
427.54	4960.18
427.75	5068.72
427.96	5216.18
428.17	5121.97
428.38	5232.56
428.59	5279.66
428.80	5285.81
429.01	5210.03
429.23	5285.81
429.44	5517.23
429.65	5337.01
429.86	5322.67
430.07	5302.19
430.28	5343.15
430.49	5447.60
430.70	5552.04
430.91	5654.44
431.12	5457.84
431.33	5672.87
431.54	5676.97
431.75	5668.78
431.96	5560.24
432.17	5593.00
432.38	5529.52
432.59	5865.38
432.80	5740.46
433.01	5949.35
433.22	5820.33
433.43	5935.01
433.64	5744.55
433.85	5781.42
434.06	6064.04
434.27	5746.60
434.49	6000.55
434.70	6090.66
434.91	5902.25
435.12	6072.23
435.33	6109.09
435.54	5971.88
435.75	5826.47
435.96	6121.38
436.17	5932.97
436.38	6242.21
436.59	6279.07
436.80	6283.17
437.01	6410.14
437.22	6410.14
437.43	6295.46
437.64	6148.00
437.85	6295.46
438.06	6363.04
438.27	6184.87
438.48	6301.60
438.69	6586.27
438.90	6461.34
439.11	6461.34
439.32	6557.60
439.53	6698.91
439.74	6582.17
439.95	6576.03
440.16	6430.62
440.37	6717.34
440.57	6494.11
440.78	6602.65
440.99	6737.82
441.20	6758.30
441.41	6737.82
441.62	6758.30
441.83	6774.68
442.04	6918.04
442.25	6795.16
442.46	6764.44
442.67	7178.13
442.88	7341.97
443.09	6844.31
443.30	6803.35
443.51	6991.77
443.72	7296.91
443.93	6995.86
444.14	7182.23
444.35	7018.39
444.56	7128.98
444.77	7200.66
444.98	7133.08
445.19	7227.28
445.40	7188.37
445.61	7147.41
445.81	7294.86
446.02	7253.91
446.23	7362.45
446.44	7249.81
446.65	7436.17
446.86	7315.34
447.07	7419.79
447.28	7536.52
447.49	7503.76
447.70	7401.36
447.91	7382.93
448.12	7495.57
448.33	7778.19
448.54	7769.99
448.74	7604.11
448.95	7669.64
449.16	7567.24
449.37	7964.55
449.58	7761.80
449.79	7995.27
450.00	7475.09
450.21	7876.49
450.42	7991.17
450.63	7999.37
450.84	7987.08
451.05	8091.52
451.25	8132.48
451.46	7917.45
451.67	8132.48
451.88	8378.24
452.09	8343.42
452.30	8261.51
452.51	8249.22
452.72	8335.23
452.93	8513.41
453.13	8257.41
453.34	8402.82
453.55	8259.46
453.76	8357.76
453.97	8898.42
454.18	8599.42
454.39	8519.55
454.60	8464.25
454.81	8578.94
455.01	8843.13
455.22	8597.37
455.43	8744.83
455.64	9041.78
455.85	9138.04
456.06	9277.30
456.27	8974.20
456.48	8851.32
456.68	9074.55
456.89	9029.49
457.10	9205.62
457.31	9185.14
457.52	9080.69
457.73	9244.53
457.94	9611.12
458.14	9043.83
458.35	9774.95
458.56	9451.38
458.77	9564.01
458.98	9611.12
459.19	9492.34
459.39	9820.01
459.60	9869.16
459.81	9662.32
460.02	10000.23
460.23	9828.20
460.44	10006.38
460.65	10245.99
460.85	10194.79
461.06	10307.43
461.27	9969.51
461.48	10461.02
461.69	10458.98
461.89	10266.47
462.10	10501.98
462.31	10205.03
462.52	10264.42
462.73	10366.82
462.94	10657.63
463.14	10669.92
463.35	10641.25
463.56	10966.87
463.77	11022.17
463.98	10714.97
464.18	10819.42
464.39	11089.75
464.60	11263.83
464.81	11212.63
465.02	11003.74
465.23	11575.12
465.43	11239.25
465.64	11523.92
465.85	11577.17
466.06	11558.74
466.27	11878.22
466.47	11814.73
466.68	11525.97
466.89	11648.85
467.10	11890.51
467.30	11788.11
467.51	11927.37
467.72	12123.98
467.93	12060.49
468.14	12154.69
468.34	12244.81
468.55	12453.70
468.76	12597.06
468.97	12152.65
469.17	12644.16
469.38	12629.82
469.59	12795.71
469.80	12711.74
470.01	12713.79
470.21	12754.75
470.42	12949.31
470.63	13154.10
470.84	13037.37
471.04	13264.69
471.25	13274.93
471.46	13129.53
471.67	13518.64
471.87	13659.95
472.08	13840.17
472.29	13866.80
472.50	13375.28
472.70	13707.05
472.91	13688.62
473.12	14128.94
473.33	14065.45
473.53	14303.01
473.74	14085.93
473.95	14610.21
474.16	14591.78
474.36	14409.51
474.57	14810.91
474.78	15132.44
474.99	14763.81
475.19	14860.06
475.40	15189.78
475.61	15265.56
475.81	15460.12
476.02	15523.60
476.23	15425.30
476.44	15884.05
476.64	15955.72
476.85	15875.85
477.06	15879.95
477.27	16238.34
477.47	16103.18
477.68	15863.57
477.89	16557.83
478.09	16680.71
478.30	16455.43
478.51	16664.32
478.71	16918.27
478.92	16768.77
479.13	17086.20
479.34	17213.18
479.54	17317.62
479.75	17346.30
479.96	17483.51
480.16	17823.47
480.37	17667.83
480.58	17712.88
480.78	18128.62
480.99	18079.47
481.20	18196.20
481.41	18349.80
481.61	18253.55
481.82	18224.87
482.03	18380.52
482.23	18749.15
482.44	19060.45
482.65	19050.21
482.85	19314.39
483.06	19076.83
483.27	19281.63
483.47	19369.69
483.68	19357.40
483.89	19533.53
484.09	19525.33
484.30	19640.02
484.51	20022.99
484.71	20213.45
484.92	20002.51
485.13	20231.88
485.33	20639.43
485.54	20166.35
485.75	20844.23
485.95	20893.38
486.16	20905.66
486.37	21092.03
486.57	21001.92
486.78	21272.25
486.98	21239.48
487.19	21245.63
487.40	21466.81
487.60	21606.07
487.81	21849.78
488.02	21737.14
488.22	21765.81
488.43	21890.74
488.64	21778.10
488.84	22296.24
489.05	22369.96
489.25	22236.84
489.46	22511.27
489.67	22759.08
489.87	22617.77
490.08	22779.56
490.29	22992.55
490.49	23176.86
490.70	23303.84
490.90	23498.39
491.11	23295.64
491.32	23307.93
491.52	23473.82
491.73	23486.11
491.94	23826.07
492.14	23846.55
492.35	23971.47
492.55	24170.13
492.76	24422.03
492.97	24456.84
493.17	24436.36
493.38	24309.39
493.58	24563.34
493.79	24811.14
494.00	24796.81
494.20	25319.04
494.41	25267.84
494.61	25030.27
494.82	25075.33
495.02	25484.92
495.23	25239.17
495.44	25417.34
495.64	25775.73
495.85	25699.96
496.05	26191.47
496.26	25816.69
496.47	25960.05
496.67	26009.20
496.88	26257.01
497.08	25937.52
497.29	26510.96
497.49	26240.62
497.70	26531.44
497.91	26566.25
498.11	26637.93
498.32	26928.74
498.52	27086.43
498.73	27332.19
498.93	27027.04
499.14	27319.90
499.34	27518.56
499.55	27387.49
499.76	27633.24
499.96	27571.80
500.17	27702.87
500.37	27403.87
500.58	28051.03
500.78	28210.77
500.99	27952.73
501.19	28130.90
501.40	28116.56
501.60	28319.31
501.81	28130.90
502.02	28116.56
502.22	28323.41
502.43	28548.68
502.63	29072.96
502.84	28841.54
503.04	28687.95
503.25	28829.26
503.45	28870.22
503.66	29339.20
503.86	28945.99
504.07	29505.09
504.27	29197.89
504.48	29609.53
504.68	29589.05
504.89	29423.17
505.09	30139.96
505.30	29896.25
505.50	29568.57
505.71	29732.41
505.91	30094.90
506.12	30099.00
506.32	29797.95
506.53	29986.36
506.73	30105.14
506.94	30357.04
507.14	30326.32
507.35	30254.64
507.55	30561.84
507.76	30604.84
507.96	30504.49
508.17	30494.25
508.37	30778.92
508.58	30891.56
508.78	31159.84
508.99	31284.77
509.19	30991.91
509.40	31284.77
509.60	30852.65
509.81	31213.09
510.01	31313.44
510.22	31346.21
510.42	31475.23
510.63	32022.04
510.83	31581.73
511.04	31575.58
511.24	31669.79
511.44	31606.30
511.65	31921.69
511.85	31948.31
512.06	31893.02
512.26	31915.54
512.47	32232.98
512.67	32230.93
512.88	32077.33
513.08	32294.42
513.29	32396.82
513.49	32304.66
513.69	32241.17
513.90	32583.18
514.10	32478.74
514.31	32790.03
514.51	32753.16
514.72	32562.70
514.92	32828.94
515.13	32689.68
515.33	32781.84
515.53	33259.01
515.74	32923.15
515.94	33097.22
516.15	33414.66
516.35	33033.74
516.56	33392.13
516.76	33181.19
516.96	33385.99
517.17	33641.98
517.37	33418.75
517.58	33689.09
517.78	33656.32
517.99	33748.48
518.19	33641.98
518.39	33908.22
518.60	34125.30
518.80	33779.20
519.01	34102.78
519.21	33996.28
519.41	33924.60
519.62	34127.35
519.82	34250.23
520.03	34199.03
520.23	34760.17
520.43	34860.52
520.64	34481.65
520.84	34921.96
521.05	35020.27
521.25	35169.77
521.45	34930.16
521.66	35388.90
521.86	35243.49
522.07	35380.71
522.27	35024.36
522.47	35323.36
522.68	35851.74
522.88	35413.48
523.08	35784.16
523.29	35896.80
523.49	35861.98
523.70	35800.54
523.90	36087.26
524.10	36066.78
524.31	36496.85
524.51	36009.43
524.71	36376.02
524.92	36519.38
525.12	36609.49
525.33	36834.77
525.53	36584.91
525.73	36945.36
525.94	36664.78
526.14	36955.60
526.34	37172.68
526.55	37524.93
526.75	37244.36
526.95	37416.39
527.16	37303.75
527.36	37416.39
527.56	37723.58
527.77	37629.38
527.97	37670.34
528.17	37311.94
528.38	37926.33
528.58	37971.39
528.78	37903.81
528.99	38206.90
529.19	38385.08
529.39	38256.06
529.60	38813.10
529.80	38323.64
530.00	38282.68
530.21	38968.75
530.41	39112.11
530.61	38671.79
530.82	39249.32
531.02	39005.61
531.22	39364.01
531.43	39181.74
531.63	39484.84
531.83	39523.75
532.04	39577.00
532.24	39624.10
532.44	40078.75
532.64	39908.77
532.85	40385.94
533.05	40275.35
533.25	40220.06
533.46	39962.01
533.66	40652.18
533.86	40474.01
534.07	40572.31
534.27	40791.44
534.47	40940.94
534.67	41307.53
534.88	40779.15
535.08	41393.54
535.28	41149.84
535.49	41428.36
535.69	41596.29
535.89	41606.53
536.09	41840.00
536.30	41768.32
536.50	41960.83
536.70	41950.59
536.91	41794.95
537.11	41962.88
537.31	42048.89
537.51	42470.78
537.72	42571.13
537.92	42462.58
538.12	42935.66
538.32	42706.29
538.53	42648.95
538.73	42820.98
538.93	43183.47
539.13	43093.36
539.34	42829.17
539.54	43173.23
539.74	42876.27
539.94	43611.49
540.15	43105.65
540.35	43656.55
540.55	43431.27
540.75	43851.11
540.96	43830.63
541.16	43996.51
541.36	43693.41
541.56	43928.93
541.77	44078.43
541.97	44186.97
542.17	44043.62
542.37	44010.85
542.58	44494.17
542.78	43990.37
542.98	44543.32
543.18	44684.63
543.38	44875.09
543.59	44793.17
543.79	44606.81
543.99	44830.04
544.19	45126.99
544.40	44883.28
544.60	45808.96
544.80	44787.03
545.00	45333.84
545.20	45219.15
545.41	45161.81
545.61	45315.40
545.81	45112.66
546.01	45776.20
546.21	45725.00
546.42	45206.86
546.62	45706.57
546.82	45380.94
547.02	45786.44
547.22	46044.48
547.43	45915.46
547.63	46093.63
547.83	46071.10
548.03	45970.75
548.23	46329.15
548.44	46187.84
548.64	46517.56
548.84	46386.49
549.04	46409.02
549.24	46863.67
549.45	46429.50
549.65	46449.98
549.85	46193.98
550.05	46691.64
550.25	46814.52
550.45	47447.34
550.66	46964.02
550.86	46845.24
551.06	47199.54
551.26	47072.56
551.46	47349.04
551.66	47041.84
551.87	46875.96
552.07	47492.40
552.27	47234.35
552.47	47537.45
552.67	48198.94
552.87	47340.85
553.07	47240.50
553.28	47355.18
553.48	47922.47
553.68	47945.00
553.88	47975.72
554.08	47512.88
554.28	47979.81
554.48	47703.34
554.69	47863.08
554.89	48024.87
555.09	47715.62
555.29	47402.28
555.49	48053.54
555.69	47820.07
555.89	47748.39
556.10	48024.87
556.30	48303.39
556.50	48186.66
556.70	47791.40
556.90	48381.21
557.10	48508.19
557.30	48119.07
557.50	48596.25
557.70	48524.57
557.91	48919.83
558.11	48657.69
558.31	48424.22
558.51	48389.41
558.71	48459.04
558.91	48885.01
559.11	48383.26
559.31	48917.78
559.51	48635.16
559.72	48567.58
559.92	48815.38
560.12	48473.37
560.32	48905.49
560.52	48741.66
560.72	49048.85
560.92	49061.14
561.12	49073.43
561.32	49052.95
561.52	48995.60
561.72	49243.41
561.93	48803.10
562.13	49218.83
562.33	48979.22
562.53	49397.01
562.73	49255.70
562.93	49163.54
563.13	49114.39
563.33	49188.11
563.53	49562.89
563.73	49143.06
563.93	49042.71
564.13	49886.47
564.33	49566.99
564.53	49016.08
564.74	49612.04
564.94	49173.78
565.14	49798.41
565.34	49362.19
565.54	49622.28
565.74	49616.14
565.94	49839.37
566.14	49964.29
566.34	49282.32
566.54	50187.52
566.74	49368.33
566.94	50052.36
567.14	50021.64
567.34	49812.74
567.54	50033.92
567.74	49687.82
567.94	49982.73
568.14	50048.26
568.34	50261.25
568.54	49865.99
568.74	50400.51
568.94	49751.30
569.14	50568.44
569.34	50760.95
569.54	50640.12
569.75	50531.58
569.95	50369.79
570.15	50478.33
570.35	50699.51
570.55	50248.96
570.75	50320.64
570.95	50590.97
571.15	50930.93
571.35	50902.26
571.55	50578.68
571.75	50648.32
571.95	50341.12
572.15	49978.63
572.35	50832.63
572.55	50939.13
572.75	50980.09
572.95	50695.42
573.15	51070.20
573.35	50851.06
573.55	50547.96
573.75	51021.05
573.95	51242.23
574.15	51045.62
574.35	51229.94
574.55	51447.02
574.75	51221.75
574.95	51154.16
575.15	51102.96
575.34	51477.74
575.54	51086.58
575.74	51397.87
575.94	51277.04
576.14	51700.97
576.34	51748.07
576.54	51524.85
576.74	51748.07
576.94	51516.65
577.14	51766.51
577.34	52110.56
577.54	51932.39
577.74	52194.53
577.94	51467.50
578.14	51801.32
578.34	52118.76
578.54	51080.44
578.74	51365.10
578.94	52178.15
579.14	51977.45
579.34	51985.64
579.54	52114.66
579.74	52460.77
579.94	52380.90
580.13	52597.98
580.33	52425.95
580.53	52763.87
580.73	52411.62
580.93	52567.26
581.13	52321.51
581.33	52737.24
581.53	52636.89
581.73	53023.96
581.93	52864.22
582.13	52485.34
582.33	52765.91
582.53	52731.10
582.73	53255.38
582.92	52614.37
583.12	53048.53
583.32	52919.51
583.52	52571.36
583.72	53497.04
583.92	52925.66
584.12	53083.35
584.32	53279.96
584.52	53175.51
584.72	53458.13
584.92	53499.09
585.11	53595.34
585.31	53566.67
585.51	54105.29
585.71	53394.64
585.91	54009.03
586.11	53265.62
586.31	53095.64
586.51	53359.83
586.71	53873.87
586.91	54074.57
587.10	53908.68
587.30	54076.61
587.50	53669.07
587.70	53892.30
587.90	53894.35
588.10	53929.16
588.30	53961.93
588.50	54490.30
588.69	54002.89
588.89	54142.15
589.09	54281.41
589.29	54508.74
589.49	54731.96
589.69	54070.47
589.89	54744.25
590.08	54365.38
590.28	54344.90
590.48	54437.06
590.68	54316.23
590.88	54572.22
591.08	54596.80
591.28	54453.44
591.47	54854.84
591.67	54981.82
591.87	54222.02
592.07	54402.24
592.27	54994.10
592.47	54783.16
592.67	54936.76
592.86	54887.61
593.06	54965.43
593.26	54668.48
593.46	55192.76
593.66	55135.41
593.86	54813.88
594.05	54738.11
594.25	55497.91
594.45	54914.23
594.65	55057.59
594.85	54987.96
595.05	55477.43
595.24	55239.86
595.44	55203.00
595.64	55354.55
595.84	55391.41
596.04	55807.15
596.23	55452.85
596.43	55604.40
596.63	55231.67
596.83	55420.08
597.03	55817.39
597.22	55817.39
597.42	55342.26
597.62	55753.90
597.82	55450.80
598.02	55792.81
598.21	55919.79
598.41	55663.79
598.61	55891.12
598.81	55329.97
599.01	55815.34
599.20	55833.77
599.40	55585.97
599.60	56059.05
599.80	55934.12
600.00	55846.06
600.19	56181.93
600.39	56020.14
600.59	56171.69
600.79	56394.92
600.98	56120.49
601.18	56319.14
601.38	56212.65
601.58	56661.15
601.78	56593.57
601.97	56075.43
602.17	56587.42
602.37	56790.17
602.57	56521.89
602.76	56927.39
602.96	56284.33
603.16	56960.15
603.36	56755.36
603.55	56841.37
603.75	56818.84
603.95	57013.40
604.15	57093.27
604.34	56519.84
604.54	56824.99
604.74	56974.49
604.94	57017.50
605.13	56908.96
605.33	56921.24
605.53	56892.57
605.73	57138.33
605.92	56935.58
606.12	57394.32
606.32	57488.53
606.52	57072.79
606.71	57345.17
606.91	57138.33
607.11	57140.38
607.30	57779.34
607.50	57300.12
607.70	57752.72
607.90	57924.75
608.09	57418.90
608.29	57697.42
608.49	57425.04
608.68	57552.02
608.88	57310.36
609.08	57912.46
609.28	57758.86
609.47	57472.15
609.67	57877.64
609.87	57867.40
610.06	57513.11
610.26	57910.41
610.46	57730.19
610.66	57621.65
610.85	57633.94
611.05	57574.55
611.25	57773.20
611.44	57531.54
611.64	58074.25
611.84	57541.78
612.03	57980.04
612.23	57902.22
612.43	57676.94
612.62	57435.28
612.82	57621.65
613.02	58162.31
613.21	57885.84
613.41	57730.19
613.61	57728.14
613.80	57234.58
614.00	58066.06
614.20	57590.93
614.39	57853.07
614.59	58080.39
614.79	57656.46
614.98	57609.36
615.18	57521.30
615.38	58016.91
615.57	57930.89
615.77	57744.53
615.97	57797.77
616.16	57541.78
616.36	57613.46
616.56	58004.62
616.75	57709.71
616.95	57656.46
617.15	57476.24
617.34	57353.36
617.54	58084.49
617.74	57752.72
617.93	57771.15
618.13	56939.68
618.32	57627.79
618.52	57220.25
618.72	57797.77
618.91	57951.37
619.11	57189.53
619.31	57668.75
619.50	57625.74
619.70	57181.34
619.90	56992.92
620.09	57703.57
620.29	57644.18
620.48	57511.06
620.68	57889.93
620.88	56968.35
621.07	57709.71
621.27	57357.46
621.46	57283.73
621.66	57261.21
621.86	57459.86
622.05	57375.89
622.25	57728.14
622.44	57253.01
622.64	56863.90
622.84	57697.42
623.03	56507.55
623.23	57320.60
623.42	57132.18
623.62	57513.11
623.82	57431.19
624.01	57300.12
624.21	57427.09
624.40	57306.26
624.60	57173.14
624.80	56802.46
624.99	57105.56
625.19	56761.50
625.38	57275.54
625.58	56923.29
625.77	57326.74
625.97	56927.39
626.17	57007.26
626.36	57093.27
626.56	57306.26
626.75	56405.16
626.95	57136.28
627.14	56497.31
627.34	57201.82
627.54	56964.25
627.73	57042.07
627.93	56951.96
628.12	56769.69
628.32	56640.67
628.51	56339.62
628.71	56609.95
628.90	56902.81
629.10	56620.19
629.30	56698.01
629.49	56921.24
629.69	56837.28
629.88	57089.18
630.08	56626.34
630.27	56558.75
630.47	56837.28
630.66	56646.82
630.86	57064.60
631.05	56423.59
631.25	57640.08
631.44	56923.29
631.64	56661.15
631.84	57291.93
632.03	57101.46
632.23	56888.48
632.42	57248.92
632.62	57015.45
632.81	56540.32
633.01	56542.37
633.20	57009.31
633.40	56577.18
633.59	56650.91
633.79	56288.42
633.98	56450.21
634.18	56716.45
634.37	56519.84
634.57	56816.80
634.76	57226.39
634.96	56790.17
635.15	57144.47
635.35	56239.27
635.54	56599.71
635.74	56695.97
635.93	56360.10
636.13	57367.70
636.32	56843.42
636.52	56267.94
636.71	56532.13
636.91	56294.56
637.10	56509.60
637.30	56464.55
637.49	56564.90
637.69	56437.92
637.88	56755.36
638.08	56288.42
638.27	57013.40
638.46	56710.30
638.66	56130.73
638.85	56278.18
639.05	56515.75
639.24	56743.07
639.44	56210.60
639.63	56521.89
639.83	56425.64
640.02	56792.22
640.22	56800.41
640.41	57078.94
640.61	56300.71
640.80	56673.44
640.99	56081.58
641.19	57091.22
641.38	56280.23
641.58	56587.42
641.77	56114.34
641.97	55927.98
642.16	56313.00
642.36	56835.23
642.55	56599.71
642.74	56204.45
642.94	56976.54
643.13	56210.60
643.33	56362.15
643.52	56544.42
643.72	56741.02
643.91	56155.30
644.10	56652.96
644.30	56906.91
644.49	55932.07
644.69	56587.42
644.88	56755.36
645.08	56325.28
645.27	56321.19
645.46	56370.34
645.66	56298.66
645.85	56601.76
646.05	56351.91
646.24	56650.91
646.43	56775.84
646.63	56456.35
646.82	56949.92
647.02	56751.26
647.21	56294.56
647.40	56482.98
647.60	57144.47
647.79	56468.64
647.99	56620.19
648.18	56157.35
648.37	56863.90
648.57	57144.47
648.76	56888.48
648.96	56571.04
649.15	56865.95
649.34	56884.38
649.54	56683.68
649.73	56671.39
649.92	56597.66
650.12	56894.62
650.31	56698.01
650.51	56650.91
650.70	56702.11
650.89	56437.92
651.09	57175.19
651.28	56425.64
651.47	56595.62
651.67	56468.64
651.86	56779.93
652.06	56431.78
652.25	57019.55
652.44	57115.80
652.64	56507.55
652.83	56528.03
653.02	56136.87
653.22	56544.42
653.41	56292.52
653.60	56245.41
653.80	56245.41
653.99	56681.63
654.18	56407.20
654.38	56505.51
654.57	56378.53
654.76	56642.72
654.96	56286.37
655.15	56102.06
655.34	56347.81
655.54	56028.33
655.73	56378.53
655.92	56673.44
656.12	56401.06
656.31	56296.61
656.50	56669.34
656.70	56247.46
656.89	56282.28
657.08	56755.36
657.28	56521.89
657.47	56216.74
657.66	56358.05
657.86	56460.45
658.05	56388.77
658.24	56532.13
658.43	56394.92
658.63	56136.87
658.82	56183.97
659.01	56368.29
659.21	56378.53
659.40	56738.97
659.59	56550.56
659.79	56079.53
659.98	56155.30
660.17	56474.79
660.36	56136.87
660.56	56327.33
660.75	56349.86
660.94	56386.72
661.14	56485.03
661.33	56300.71
661.52	55995.56
661.71	56536.23
661.91	56425.64
662.10	55968.94
662.29	56286.37
662.49	56206.50
662.68	56607.90
662.87	56145.06
663.06	56183.97
663.26	56083.62
663.45	56493.22
663.64	55989.42
663.83	56446.11
664.03	56048.81
664.22	55985.32
664.41	55907.50
664.60	55907.50
664.80	56108.20
664.99	55493.81
665.18	55903.40
665.37	56368.29
665.57	56198.31
665.76	55874.73
665.95	55772.33
666.14	55760.05
666.34	55635.12
666.53	55884.97
666.72	55579.82
666.91	55991.47
667.11	56067.24
667.30	55973.03
667.49	55729.33
667.68	55764.14
667.87	55575.73
668.07	55694.51
668.26	55569.58
668.45	55702.70
668.64	55436.47
668.84	55970.99
669.03	55813.29
669.22	55397.55
669.41	55569.58
669.60	55768.24
669.80	55549.10
669.99	55708.85
670.18	55311.54
670.37	55211.19
670.57	55655.60
670.76	55221.43
670.95	55856.30
671.14	55590.06
671.33	55059.64
671.53	55674.03
671.72	55047.35
671.91	55739.57
672.10	55471.28
672.29	55041.21
672.48	55307.44
672.68	55401.65
672.87	55573.68
673.06	54875.32
673.25	54973.63
673.44	55164.09
673.64	54912.19
673.83	54971.58
674.02	54871.23
674.21	54793.40
674.40	55307.44
674.59	55235.77
674.79	54975.67
674.98	54654.14
675.17	54770.88
675.36	54572.22
675.55	55084.22
675.74	55059.64
675.94	54858.94
676.13	54566.08
676.32	54883.51
676.51	55256.24
676.70	54914.23
676.89	54875.32
677.08	55078.07
677.28	54525.12
677.47	54996.15
677.66	55096.50
677.85	55016.63
678.04	54996.15
678.23	55469.23
678.42	54977.72
678.62	54731.96
678.81	54633.66
679.00	54353.09
679.19	55071.93
679.38	54406.34
679.57	54369.47
679.76	54273.22
679.96	54721.72
680.15	54713.53
680.34	54428.87
680.53	54426.82
680.72	54588.61
680.91	54590.66
681.10	54604.99
681.29	54772.92
681.48	54166.73
681.68	53761.23
681.87	53712.08
682.06	54107.33
682.25	53824.71
682.44	53816.52
682.63	54541.50
682.82	54131.91
683.01	54074.57
683.20	53660.88
683.39	53884.11
683.59	53781.71
683.78	53828.81
683.97	53785.80
684.16	53810.38
684.35	53550.29
684.54	53630.16
684.73	53804.24
684.92	53683.40
685.11	53611.73
685.30	53480.66
685.49	53503.18
685.69	53245.14
685.88	53900.49
686.07	53707.98
686.26	53253.33
686.45	53667.02
686.64	53570.77
686.83	53673.16
687.02	53347.54
687.21	53339.35
687.40	53630.16
687.59	53306.58
687.78	53212.37
687.97	53167.32
688.16	53083.35
688.35	52903.13
688.54	52704.48
688.74	52622.56
688.93	52790.49
689.12	53101.78
689.31	52751.58
689.50	52749.53
689.69	52483.30
689.88	52423.90
690.07	52835.55
690.26	52458.72
690.45	53093.59
690.64	52493.54
690.83	52450.53
691.02	52341.99
691.21	52419.81
691.40	52354.27
691.59	52544.73
691.78	52290.79
691.97	52335.84
692.16	52329.70
692.35	52593.89
692.54	52399.33
692.73	52311.27
692.92	52163.81
693.11	52180.20
693.30	52085.99
693.49	52102.37
693.68	51772.65
693.87	52192.48
694.06	51858.66
694.25	51930.34
694.44	51700.97
694.63	51827.95
694.82	52055.27
695.01	51633.39
695.20	51770.60
695.39	51758.31
695.58	51778.79
695.77	51778.79
695.96	51352.82
696.15	51557.61
696.34	51299.57
696.53	51694.83
696.72	51817.71
696.91	51633.39
697.10	51291.38
697.29	51369.20
697.48	51647.72
697.67	50812.15
697.86	50930.93
698.05	51119.35
698.24	51076.34
698.43	50730.23
698.62	51041.53
698.81	50967.80
699.00	51483.89
699.19	50533.63
699.38	51123.44
699.57	50582.78
699.76	50988.28
699.95	50615.55
700.14	50441.47
700.32	50775.29
700.51	50357.50
700.70	50554.11
700.89	50607.36
701.08	50963.70
701.27	50486.53
701.46	50656.51
701.65	50214.15
701.84	50611.45
702.03	49966.34
702.22	50156.80
702.41	50521.34
702.60	50230.53
702.79	50296.06
702.98	49614.09
703.17	50068.74
703.35	49954.05
703.54	49771.78
703.73	50058.50
703.92	50068.74
704.11	50126.08
704.30	49771.78
704.49	49566.99
704.68	49814.79
704.87	50107.65
705.06	49837.32
705.25	49872.14
705.43	49552.65
705.62	49808.65
705.81	49403.15
706.00	49501.45
706.19	49050.90
706.38	49655.05
706.57	49190.16
706.76	48979.22
706.95	49323.28
707.14	49331.47
707.32	49159.44
707.51	48977.17
707.70	49239.31
707.89	49415.44
708.08	48858.39
708.27	48837.91
708.46	49038.61
708.65	49014.04
708.84	49491.21
709.02	48794.90
709.21	48583.96
709.40	48534.81
709.59	49071.38
709.78	48411.93
709.97	49392.91
710.16	48743.70
710.34	49046.80
710.53	48397.60
710.72	48229.66
710.91	48334.11
711.10	48731.42
711.29	48594.20
711.48	48219.42
711.66	48327.97
711.85	48067.87
712.04	48164.13
712.23	48489.76
712.42	47959.33
712.61	48522.52
712.80	48186.66
712.98	48051.49
713.17	47942.95
713.36	47979.81
713.55	47789.35
713.74	47873.32
713.93	47856.93
714.11	47826.21
714.30	47897.89
714.49	47500.59
714.68	47697.19
714.87	47502.64
715.06	47723.82
715.24	47379.76
715.43	47248.69
715.62	47039.79
715.81	47164.72
716.00	47645.99
716.18	46810.42
716.37	47101.23
716.56	46900.53
716.75	47422.76
716.94	47263.02
717.12	47134.00
717.31	47303.98
717.50	47134.00
717.69	46787.89
717.88	46679.35
718.06	47166.77
718.25	47072.56
718.44	46323.01
718.63	46372.16
718.82	46345.53
719.00	46632.25
719.19	46208.32
719.38	46417.21
719.57	46015.81
719.76	46495.03
719.94	46007.62
720.13	46171.46
720.32	46243.13
720.51	45917.51
720.69	46159.17
720.88	45675.85
721.07	45679.94
721.26	45567.30
721.44	45886.79
721.63	45509.96
721.82	45346.12
722.01	45372.75
722.20	45595.98
722.38	45270.35
722.57	44993.87
722.76	45137.23
722.95	45206.86
723.13	44752.21
723.32	45067.60
723.51	44950.87
723.70	44684.63
723.88	45184.33
724.07	44846.42
724.26	44690.77
724.44	44051.81
724.63	44842.32
724.82	44819.80
725.01	44696.92
725.19	44469.59
725.38	44451.16
725.57	44356.96
725.76	44746.07
725.94	44066.14
726.13	44637.53
726.32	44266.84
726.51	44135.77
726.69	44488.03
726.88	44379.48
727.07	44328.28
727.25	44037.47
727.44	44379.48
727.63	44008.80
727.82	44076.38
728.00	43941.22
728.19	43885.92
728.38	44074.34
728.56	43765.09
728.75	44078.43
728.94	43486.57
729.12	43787.62
729.31	43935.07
729.50	43955.55
729.69	44359.00
729.87	43748.71
730.06	43818.34
730.25	43629.93
730.43	44182.88
730.62	43476.33
730.81	43717.99
730.99	43711.84
731.18	43885.92
731.37	43402.60
731.55	43873.63
731.74	44045.66
731.93	43832.68
732.11	43545.96
732.30	43574.63
732.49	43429.23
732.67	43871.59
732.86	43560.30
733.05	43500.90
733.23	43140.46
733.42	43427.18
733.61	43255.15
733.79	43605.35
733.98	43572.58
734.17	43201.90
734.35	43410.79
734.54	43414.89
734.73	43566.44
734.91	43429.23
735.10	43435.37
735.29	43289.96
735.47	43328.87
735.66	43046.26
735.84	42868.08
736.03	43046.26
736.22	43257.20
736.40	42974.58
736.59	42833.27
736.78	42845.55
736.96	43263.34
737.15	43240.81
737.33	42898.80
737.52	42753.40
737.71	42825.07
737.89	42685.81
738.08	42435.96
738.27	42671.48
738.45	42562.93
738.64	42896.75
738.82	42442.10
739.01	42460.54
739.20	42302.84
739.38	42485.11
739.57	42532.22
739.75	42513.78
739.94	42290.55
740.13	42184.06
740.31	42278.27
740.50	42235.26
740.68	42427.77
740.87	42569.08
741.06	42476.92
741.24	42089.85
741.43	42036.61
741.61	42454.39
741.80	42009.98
741.99	42227.07
742.17	41571.72
742.36	41837.95
742.54	41866.63
742.73	41794.95
742.91	42184.06
743.10	41911.68
743.29	41780.61
743.47	41708.93
743.66	41545.09
743.84	41776.51
744.03	41831.81
744.21	41547.14
744.40	41813.38
744.59	41432.46
744.77	41428.36
744.96	41618.82
745.14	41612.68
745.33	41702.79
745.51	40953.23
745.70	41360.78
745.88	41348.49
746.07	41344.39
746.26	41178.51
746.44	41123.21
746.63	41225.61
746.81	41407.88
747.00	41092.49
747.18	41194.89
747.37	41131.40
747.55	40969.61
747.74	40873.36
747.92	40676.76
748.11	40754.58
748.29	41184.65
748.48	41162.12
748.66	40822.16
748.85	40969.61
749.03	40875.41
749.22	41090.44
749.41	40537.49
749.59	40936.85
749.78	40514.97
749.96	40490.39
750.15	40635.80
750.33	40553.88
750.52	40324.50
750.70	40297.88
750.89	40465.81
751.07	40064.41
751.26	40232.35
751.44	40414.62
751.63	40185.24
751.81	39736.74
752.00	40078.75
752.18	40203.67
752.37	39878.05
752.55	39544.23
752.74	39732.64
752.92	39806.37
753.10	39548.32
753.29	39691.68
753.47	39955.87
753.66	39351.72
753.84	39521.70
754.03	39552.42
754.21	39269.80
754.40	39335.34
754.58	39433.64
754.77	39568.80
754.95	39476.65
755.14	39435.69
755.32	39542.18
755.51	39312.81
755.69	39450.02
755.88	38942.13
756.06	39400.87
756.24	38946.22
756.43	39112.11
756.61	39179.69
756.80	39490.98
756.98	38833.58
757.17	39378.34
757.35	39114.16
757.54	38671.79
757.72	39298.47
757.90	38839.73
758.09	38831.54
758.27	38710.71
758.46	38647.22
758.64	38809.01
758.83	38788.53
759.01	38528.44
759.19	38315.45
759.38	38403.51
759.56	38608.31
759.75	38669.75
759.93	38770.10
760.12	38360.50
760.30	38645.17
760.48	38315.45
760.67	38364.60
760.85	38471.09
761.04	38514.10
761.22	38708.66
761.40	38276.54
761.59	38249.91
761.77	37936.57
761.96	38528.44
762.14	37918.14
762.32	37666.24
762.51	37832.13
762.69	37402.05
762.88	37778.88
763.06	37846.46
763.24	37424.58
763.43	38172.09
763.61	37660.10
763.80	37402.05
763.98	37635.52
764.16	37305.80
764.35	37164.49
764.53	36834.77
764.72	37305.80
764.90	37422.53
765.08	37227.98
765.27	37049.80
765.45	36976.08
765.63	36595.15
765.82	37260.74
766.00	36746.70
766.18	36670.93
766.37	37000.65
766.55	36928.97
766.74	36769.23
766.92	37035.47
767.10	36638.16
767.29	36447.70
767.47	36455.89
767.65	36543.95
767.84	36378.07
768.02	36818.38
768.20	36117.98
768.39	36390.36
768.57	36478.42
768.75	36320.73
768.94	36238.81
769.12	36279.77
769.30	35878.36
769.49	36122.07
769.67	36306.39
769.85	35562.98
770.04	35823.07
770.22	35861.98
770.40	35726.81
770.59	35585.50
770.77	35878.36
770.95	35755.49
771.14	35372.52
771.32	35597.79
771.50	35126.76
771.69	35423.72
771.87	35724.77
772.05	35657.18
772.24	35468.77
772.42	35354.08
772.60	35354.08
772.78	35579.36
772.97	35137.00
773.15	35180.01
773.33	35263.97
773.52	35130.86
773.70	35046.89
773.88	35231.21
774.07	35149.29
774.25	35075.56
774.43	35182.06
774.61	35057.13
774.80	35341.80
774.98	34977.26
775.16	35302.89
775.34	35429.86
775.53	34971.11
775.71	35479.01
775.89	35048.94
776.08	34964.97
776.26	35364.32
776.44	35251.69
776.62	35110.38
776.81	34975.21
776.99	35007.98
777.17	34833.90
777.35	35020.27
777.54	35266.02
777.72	34885.10
777.90	35190.25
778.08	35079.66
778.27	35214.82
778.45	35481.06
778.63	35309.03
778.81	34930.16
779.00	35714.53
779.18	35153.38
779.36	35266.02
779.54	35018.22
779.73	35034.60
779.91	35581.41
780.09	35497.44
780.27	35108.33
780.46	35440.10
780.64	35644.90
780.82	35571.17
781.00	35177.96
781.19	35397.09
781.37	35393.00
781.55	35546.59
781.73	35632.61
781.91	35532.26
782.10	35253.73
782.28	35773.92
782.46	35589.60
782.64	35689.95
782.82	35161.58
783.01	35677.66
783.19	35851.74
783.37	35573.22
783.55	35823.07
783.74	35581.41
783.92	35356.13
784.10	35689.95
784.28	35605.98
784.46	35216.87
784.64	35255.78
784.83	35446.24
785.01	35352.04
785.19	35605.98
785.37	35528.16
785.55	35141.10
785.74	34895.34
785.92	35157.48
786.10	35407.33
786.28	35298.79
786.46	34848.24
786.64	34883.05
786.83	35014.12
787.01	34833.90
787.19	35134.95
787.37	34993.64
787.55	34928.11
787.74	34932.20
787.92	35409.38
788.10	34778.61
788.28	34317.81
788.46	35137.00
788.64	34584.05
788.82	34870.76
789.01	34635.25
789.19	34622.96
789.37	34733.55
789.55	34371.06
789.73	34276.85
789.91	34502.13
790.09	34387.44
790.28	34354.68
790.46	34002.43
790.64	34119.16
790.82	34194.93
791.00	33959.42
791.18	34207.22
791.36	33867.26
791.55	33707.52
791.73	33897.98
791.91	33807.87
792.09	33814.01
792.27	33834.49
792.45	33639.93
792.63	33641.98
792.81	33519.10
793.00	33531.39
793.18	33500.67
793.36	33469.95
793.54	33398.27
793.72	33084.94
793.90	33099.27
794.08	32618.00
794.26	33213.96
794.44	32595.47
794.62	32538.13
794.81	32828.94
794.99	32542.22
795.17	32405.01
795.35	32439.82
795.53	32482.83
795.71	32308.76
795.89	32153.11
796.07	32181.78
796.25	31850.01
796.43	32077.33
796.61	31798.81
796.80	31641.12
796.98	31884.83
797.16	31503.90
797.34	31604.25
797.52	31653.40
797.70	31663.64
797.88	31055.40
798.06	31041.06
798.24	31335.97
798.42	31172.13
798.60	31223.33
798.78	31555.10
798.96	31172.13
799.14	30805.55
799.32	31233.57
799.51	30891.56
799.69	30932.52
799.87	30539.31
800.05	30502.45
800.23	30686.76
800.41	30330.42
800.59	30500.40
800.77	30363.18
800.95	30242.35
801.13	30180.92
801.31	30105.14
801.49	30152.24
801.67	30051.89
801.85	29759.03
802.03	29533.76
802.21	29591.10
802.39	29431.36
802.57	29777.47
802.75	29318.72
802.93	29734.46
803.11	29394.50
803.29	29656.64
803.47	29265.47
803.65	29128.26
803.83	29158.98
804.01	29382.21
804.19	29156.93
804.37	29058.63
804.55	29163.08
804.73	29099.59
804.91	29072.96
805.09	28657.23
805.27	28753.48
805.45	28696.14
805.63	28909.13
805.81	28485.20
805.99	28878.41
806.17	28468.81
806.35	28462.67
806.53	28313.17
806.71	28157.52
806.89	28427.85
807.07	28304.98
807.25	28352.08
807.43	27917.91
807.61	28126.80
807.79	28008.02
807.97	27948.63
808.15	27682.39
808.33	27743.83
808.51	27741.78
808.69	27938.39
808.87	27438.69
809.05	27381.34
809.23	27377.25
809.41	26967.65
809.59	27448.93
809.77	27762.26
809.95	27000.42
810.13	26723.94
810.31	26889.83
810.49	27164.26
810.67	27151.97
810.84	26740.33
811.02	26922.60
811.20	26855.01
811.38	26775.14
811.56	26701.42
811.74	26725.99
811.92	26633.83
812.10	26386.03
812.28	26484.33
812.46	26482.28
812.64	26508.91
812.82	26170.99
813.00	26308.21
813.18	26340.97
813.36	26125.94
813.53	26293.87
813.71	26089.07
813.89	25917.04
814.07	26027.63
814.25	25831.03
814.43	26068.59
814.61	25888.37
814.79	25683.58
814.97	25769.59
815.15	25861.75
815.33	25761.40
815.50	25403.00
815.68	25339.52
815.86	25685.62
816.04	25388.67
816.22	25265.79
816.40	25101.95
816.58	25134.72
816.76	25230.98
816.94	25312.89
817.11	25316.99
817.29	25327.23
817.47	25132.67
817.65	24901.25
817.83	25079.43
818.01	24675.98
818.19	24917.64
818.37	24860.29
818.54	24243.85
818.72	24456.84
818.90	24659.59
819.08	24428.17
819.26	24761.99
819.44	24487.56
819.62	24495.75
819.80	24653.45
819.97	24395.40
820.15	24174.22
820.33	24452.75
820.51	24626.82
820.69	24190.61
820.87	24204.94
821.05	24403.60
821.22	24077.97
821.40	24186.51
821.58	23981.71
821.76	24133.26
821.94	23934.61
822.12	23830.16
822.29	24094.35
822.47	23862.93
822.65	24030.87
822.83	24002.19
823.01	23928.47
823.19	23649.94
823.36	23328.41
823.54	23645.85
823.72	23559.83
823.90	23539.35
824.08	23486.11
824.25	23428.76
824.43	23262.88
824.61	23447.19
824.79	23535.26
824.97	23502.49
825.15	23377.56
825.32	23455.39
825.50	23072.42
825.68	23107.23
825.86	23088.80
826.04	23309.98
826.21	22834.85
826.39	22912.67
826.57	22984.35
826.75	22785.70
826.93	23140.00
827.10	22716.07
827.28	22970.02
827.46	22906.53
827.64	22824.61
827.81	22789.80
827.99	22617.77
828.17	22820.52
828.35	22525.61
828.53	22353.58
828.70	22466.22
828.88	22650.53
829.06	22668.97
829.24	22757.03
829.41	22435.50
829.59	22384.30
829.77	22333.10
829.95	22351.53
830.12	22333.10
830.30	22251.18
830.48	22130.35
830.66	22216.36
830.84	22116.01
831.01	22238.89
831.19	22159.02
831.37	22116.01
831.55	21925.55
831.72	21939.89
831.90	21876.40
832.08	21999.28
832.25	21911.22
832.43	21808.82
832.61	21884.59
832.79	21796.53
832.96	21659.32
833.14	21860.02
833.32	21716.66
833.50	21690.04
833.67	21890.74
833.85	21411.51
834.03	21479.10
834.20	21710.52
834.38	21728.95
834.56	21687.99
834.74	21210.81
834.91	21460.66
835.09	21325.50
835.27	21042.88
835.44	21003.97
835.62	20981.44
835.80	21374.65
835.98	21477.05
836.15	21061.31
836.33	20969.15
836.51	21436.09
836.68	20850.37
836.86	20895.43
837.04	21135.04
837.21	20999.87
837.39	20967.10
837.57	20889.28
837.75	20954.82
837.92	20752.07
838.10	20623.05
838.28	20707.01
838.45	20582.09
838.63	20801.22
838.81	20604.61
838.98	20629.19
839.16	20643.52
839.34	20657.86
839.51	20664.00
839.69	20522.69
839.87	20299.47
840.04	20289.23
840.22	20725.44
840.40	20350.67
840.57	20358.86
840.75	20268.75
840.93	20264.65
841.10	20526.79
841.28	20520.65
841.46	20244.17
841.63	20131.53
841.81	20201.16
841.98	20365.00
842.16	20190.92
842.34	20057.81
842.51	19775.19
842.69	20055.76
842.87	19908.30
843.04	20000.46
843.22	19887.82
843.40	19789.52
843.57	19924.69
843.75	19785.43
843.92	19654.36
844.10	19760.85
844.28	20043.47
844.45	19736.27
844.63	19945.17
844.81	19685.08
844.98	19785.43
845.16	19603.16
845.33	19375.83
845.51	19343.06
845.69	19334.87
845.86	19394.26
846.04	19390.17
846.21	19363.54
846.39	19619.54
846.57	19521.24
846.74	19357.40
846.92	19117.79
847.09	19285.72
847.27	19164.89
847.45	19330.78
847.62	19250.91
847.80	19287.77
847.97	19312.35
848.15	19420.89
848.32	18990.81
848.50	19031.77
848.68	18927.33
848.85	18982.62
849.03	18722.53
849.20	18980.57
849.38	19060.45
849.56	18917.09
849.73	18554.60
849.91	18925.28
850.08	19031.77
850.26	18743.01
850.43	18908.90
850.61	18974.43
850.78	18458.34
850.96	18589.41
851.14	18362.09
851.31	18706.15
851.49	18380.52
851.66	18167.53
851.84	18546.40
852.01	18349.80
852.19	18468.58
852.36	18575.08
852.54	18325.22
852.71	18552.55
852.89	18364.14
853.07	18382.57
853.24	18530.02
853.42	18267.88
853.59	18208.49
853.77	18210.54
853.94	18208.49
854.12	18353.90
854.29	18216.68
854.47	18081.52
854.64	18339.56
854.82	18261.74
854.99	18202.35
855.17	18005.74
855.34	17727.22
855.52	18046.70
855.69	18175.72
855.87	17837.81
856.04	18026.22
856.22	17788.66
856.39	17651.44
856.57	17694.45
856.74	17872.62
856.92	17688.31
857.09	17628.92
857.27	17825.52
857.44	18009.84
857.62	17710.83
857.79	17647.35
857.97	17835.76
858.14	17596.15
858.32	17362.68
858.49	17661.68
858.67	17401.59
858.84	17712.88
859.02	17565.43
859.19	17377.01
859.37	17409.78
859.54	17256.18
859.72	17618.68
859.89	17278.71
860.06	17536.76
860.24	17123.07
860.41	17395.45
860.59	17131.26
860.76	17223.42
860.94	17075.96
861.11	17133.31
861.29	17262.33
861.46	17211.13
861.64	17041.15
861.81	16928.51
861.98	16817.92
862.16	16928.51
862.33	16854.78
862.51	16901.89
862.68	17055.48
862.86	16881.41
863.03	16713.47
863.21	16908.03
863.38	16961.28
863.55	16901.89
863.73	16701.19
863.90	16809.73
864.08	16633.60
864.25	16701.19
864.43	16551.68
864.60	16574.21
864.77	16312.07
864.95	16555.78
865.12	16377.61
865.30	16504.58
865.47	16279.30
865.64	16336.65
865.82	16557.83
865.99	16461.57
866.17	16463.62
866.34	16348.93
866.51	16221.96
866.69	16219.91
866.86	16070.41
867.04	16344.84
867.21	16111.37
867.38	16205.58
867.56	15986.44
867.73	15826.70
867.91	16056.08
868.08	16103.18
868.25	15771.41
868.43	15902.48
868.60	15908.62
868.78	15861.52
868.95	15918.86
869.12	15640.34
869.30	15521.56
869.47	15795.98
869.64	15517.46
869.82	15367.96
869.99	15843.09
870.16	15642.39
870.34	15697.68
870.51	15546.13
870.69	15494.93
870.86	15607.57
871.03	15574.80
871.21	15238.94
871.38	15564.56
871.55	15501.08
871.73	15396.63
871.90	15372.05
872.07	15265.56
872.25	15071.00
872.42	15265.56
872.59	15265.56
872.77	15144.73
872.94	15120.15
873.11	14962.46
873.29	14980.89
873.46	15103.77
873.63	15230.74
873.81	14993.18
873.98	14833.44
874.15	14874.40
874.33	14806.81
874.50	14806.81
874.67	14901.02
874.85	15011.61
875.02	14649.12
875.19	14563.11
875.37	14772.00
875.54	14636.83
875.71	14548.77
875.88	14380.84
876.06	14434.08
876.23	14446.37
876.40	14466.85
876.58	14661.41
876.75	14151.46
876.92	14264.10
877.10	14292.77
877.27	14434.08
877.44	14128.94
877.61	14202.66
877.79	14178.09
877.96	14290.73
878.13	14260.01
878.31	14079.79
878.48	13907.76
878.65	13979.43
878.82	13995.82
879.00	14040.87
879.17	13991.72
879.34	14071.59
879.51	13821.74
879.69	13952.81
879.86	13899.56
880.03	13813.55
880.21	13698.86
880.38	13795.12
880.55	13934.38
880.72	13879.08
880.90	13973.29
881.07	13795.12
881.24	13866.80
881.41	13612.85
881.59	13696.82
881.76	13805.36
881.93	13483.83
882.10	13647.66
882.28	13549.36
882.45	13592.37
882.62	13500.21
882.79	13580.08
882.96	13330.23
883.14	13670.19
883.31	13504.31
883.48	13604.66
883.65	13276.98
883.83	13549.36
884.00	13412.15
884.17	13367.09
884.34	13408.05
884.51	13365.04
884.69	13432.63
884.86	13084.47
885.03	13266.74
885.20	13291.32
885.38	13399.86
885.55	13018.94
885.72	13301.56
885.89	13160.25
886.06	13160.25
886.24	13244.21
886.41	13160.25
886.58	13319.99
886.75	13150.01
886.92	13043.51
887.10	13350.71
887.27	13004.60
887.44	12924.73
887.61	13070.14
887.78	13068.09
887.95	13096.76
888.13	12812.09
888.30	12826.43
888.47	12916.54
888.64	12748.61
888.81	12853.05
888.99	12904.25
889.16	12930.87
889.33	12828.48
889.50	12549.95
889.67	12584.77
889.84	12574.53
890.01	12592.96
890.19	12709.69
890.36	12697.41
890.53	12678.97
890.70	12578.62
890.87	12601.15
891.04	12437.31
891.22	12658.49
891.39	12599.10
891.56	12439.36
891.73	12345.16
891.90	12488.51
892.07	12336.96
892.24	12164.93
892.42	12166.98
892.59	12541.76
892.76	12332.87
892.93	12347.20
893.10	12418.88
893.27	12312.39
893.44	12160.84
893.61	12242.76
893.79	12281.67
893.96	12250.95
894.13	12197.70
894.30	12160.84
894.47	12130.12
894.64	12162.89
894.81	12173.13
894.98	12201.80
895.15	12156.74
895.33	12019.53
895.50	12099.40
895.67	12111.69
895.84	12128.07
896.01	12156.74
896.18	12128.07
896.35	12042.06
896.52	12322.63
896.69	12230.47
896.86	12070.73
897.04	12156.74
897.21	11958.09
897.38	12040.01
897.55	12181.32
897.72	12146.50
897.89	12050.25
898.06	12140.36
898.23	12117.83
898.40	12013.38
898.57	11943.75
898.74	12068.68
898.91	12001.10
899.08	11999.05
899.26	11894.60
899.43	11908.94
899.60	11892.55
899.77	11728.72
899.94	11966.28
900.11	11904.84
900.28	11953.99
900.45	11796.30
900.62	11892.55
900.79	11956.04
900.96	11972.43
901.13	11863.88
901.30	11970.38
901.47	11788.11
901.64	11908.94
901.81	11730.76
901.98	11816.78
902.15	11956.04
902.32	11915.08
902.49	11824.97
902.66	11806.54
902.83	11874.12
903.01	11802.44
903.18	11710.29
903.35	11814.73
903.52	11712.33
903.69	11933.51
903.86	12017.48
904.03	11781.96
904.20	11751.24
904.37	11642.70
904.54	11745.10
904.71	11933.51
904.88	11824.97
905.05	11695.95
905.22	11894.60
905.39	11599.70
905.56	11781.96
905.73	11667.28
905.90	11708.24
906.07	11847.50
906.24	11736.91
906.41	11716.43
906.58	11648.85
906.75	11736.91
906.92	11841.36
907.09	11652.94
907.26	11726.67
907.43	11521.87
907.60	11579.22
907.77	11786.06
907.93	11673.42
908.10	11630.41
908.27	11642.70
908.44	11458.39
908.61	11632.46
908.78	11609.93
908.95	11669.33
909.12	11525.97
909.29	11544.40
909.46	11374.42
909.63	11642.70
909.80	11614.03
909.97	11530.06
910.14	11409.23
910.31	11444.05
910.48	11599.70
910.65	11448.15
910.82	11331.41
910.99	11370.32
911.16	11378.51
911.33	11482.96
911.50	11276.12
911.66	11304.79
911.83	11315.03
912.00	11261.78
912.17	11181.91
912.34	11306.84
912.51	11149.14
912.68	11206.48
912.85	11245.40
913.02	11054.94
913.19	11245.40
913.36	11269.97
913.53	11075.42
913.70	10979.16
913.86	11165.53
914.03	11163.48
914.20	11122.52
914.37	11011.93
914.54	11089.75
914.71	10956.63
914.88	10975.06
915.05	10950.49
915.22	10878.81
915.39	11079.51
915.55	10544.99
915.72	10837.85
915.89	11171.67
916.06	10696.54
916.23	10784.60
916.40	10631.01
916.57	10622.81
916.74	10786.65
916.91	10641.25
917.07	10540.90
917.24	10473.31
917.41	10475.36
917.58	10499.94
917.75	10360.67
917.92	10362.72
918.09	10643.29
918.26	10438.50
918.42	10448.74
918.59	10395.49
918.76	10428.26
918.93	10215.27
919.10	10278.76
919.27	10346.34
919.44	10219.36
919.60	10162.02
919.77	10217.32
919.94	10127.21
920.11	10162.02
920.28	10092.39
920.45	10078.05
920.61	10137.45
920.78	10057.57
920.95	9883.50
921.12	9891.69
921.29	9789.29
921.46	9942.89
921.62	9750.38
921.79	9762.67
921.96	9674.60
922.13	9664.36
922.30	9693.04
922.47	9811.82
922.63	9621.36
922.80	9615.21
922.97	9541.49
923.14	9305.97
923.31	9621.36
923.47	9365.36
923.64	9469.81
923.81	9363.31
923.98	9301.87
924.15	9379.70
924.32	9351.03
924.48	9301.87
924.65	9287.54
924.82	9230.20
924.99	9107.32
925.15	9215.86
925.32	9158.52
925.49	8882.04
925.66	8658.81
925.83	8808.31
925.99	9033.59
926.16	8914.81
926.33	8992.63
926.50	8875.90
926.67	8824.70
926.83	8978.30
927.00	8783.74
927.17	8615.80
927.34	8658.81
927.50	8624.00
927.67	8718.20
927.84	8748.92
928.01	8597.37
928.17	8464.25
928.34	8497.02
928.51	8279.94
928.68	8396.67
928.84	8329.09
929.01	8349.57
929.18	8263.55
929.35	8165.25
929.51	8294.27
929.68	8277.89
929.85	8155.01
930.02	8105.86
930.18	8095.62
930.35	8138.63
930.52	7929.74
930.69	8216.45
930.85	7954.31
931.02	7950.21
931.19	7903.11
931.36	7901.06
931.52	7991.17
931.69	7851.91
931.86	7835.53
932.02	7731.08
932.19	7698.31
932.36	7681.93
932.53	7688.07
932.69	7522.19
932.86	7557.00
933.03	7722.89
933.19	7434.13
933.36	7264.15
933.53	7524.24
933.70	7274.38
933.86	7341.97
934.03	7346.06
934.20	7319.44
934.36	7384.98
934.53	7139.22
934.70	7061.40
934.86	6952.85
935.03	7010.20
935.20	7024.53
935.36	7020.44
935.53	6860.70
935.70	6932.37
935.86	6713.24
936.03	6789.02
936.20	6682.52
936.36	6676.38
936.53	6684.57
936.70	6623.13
936.86	6584.22
937.03	6350.75
937.20	6385.57
937.36	6391.71
937.53	6350.75
937.70	6172.58
937.86	6141.86
938.03	5959.59
938.20	6080.42
938.36	5975.97
938.53	6051.75
938.70	5887.91
938.86	5889.96
939.03	5789.61
939.20	5670.83
939.36	5636.01
939.53	5617.58
939.70	5777.32
939.86	5334.96
940.03	5431.21
940.19	5302.19
940.36	5281.71
940.53	5359.53
940.69	5302.19
940.86	4980.66
941.03	5124.02
941.19	4999.09
941.36	5040.05
941.52	5021.62
941.69	4908.98
941.86	5011.38
942.02	4849.59
942.19	4919.22
942.35	4812.73
942.52	4777.91
942.69	4892.60
942.85	4677.56
943.02	4560.83
943.18	4618.17
943.35	4689.85
943.52	4560.83
943.68	4470.72
943.85	4583.35
944.01	4435.90
944.18	4403.13
944.35	4423.61
944.51	4409.28
944.68	4358.08
944.84	4337.60
945.01	4386.75
945.17	4388.80
945.34	4345.79
945.51	4282.30
945.67	4259.78
945.84	4278.21
946.00	4245.44
946.17	4253.63
946.33	4155.33
946.50	4245.44
946.67	4308.93
946.83	4136.90
947.00	4286.40
947.16	4245.44
947.33	4243.39
947.49	4212.67
947.66	4161.47
947.82	4188.10
947.99	4155.33
948.16	4222.91
948.32	4102.08
948.49	4327.36
948.65	4190.14
948.82	4233.15
948.98	4124.61
949.15	4214.72
949.31	4208.58
949.48	4155.33
949.64	4126.66
949.81	4218.82
949.97	4184.00
950.14	4253.63
950.30	4181.95
950.47	4245.44
950.63	4194.24
950.80	4237.25
950.96	4200.38
951.13	4233.15
951.30	4167.62
951.46	4044.74
951.63	4181.95
951.79	4186.05
951.96	4315.07
952.12	4331.45
952.29	4259.78
952.45	4085.70
952.62	4149.18
952.78	4255.68
952.94	4202.43
953.11	4292.54
953.27	4298.69
953.44	4272.06
953.60	4216.77
953.77	4296.64
953.93	4302.78
954.10	4278.21
954.26	4208.58
954.43	4165.57
954.59	4208.58
954.76	4253.63
954.92	4192.19
955.09	4267.97
955.25	4296.64
955.42	4345.79
955.58	4341.69
955.75	4231.10
955.91	4351.93
956.07	4368.32
956.24	4315.07
956.40	4364.22
956.57	4364.22
956.73	4210.62
956.90	4206.53
957.06	4214.72
957.23	4313.02
957.39	4288.45
957.56	4341.69
957.72	4130.75
957.88	4276.16
958.05	4450.24
958.21	4310.97
958.38	4284.35
958.54	4249.54
958.71	4456.38
958.87	4243.39
959.03	4210.62
959.20	4384.70
959.36	4194.24
959.53	4300.73
959.69	4253.63
959.85	4345.79
960.02	4360.13
960.18	4286.40
960.35	4302.78
960.51	4392.89
960.68	4198.34
960.84	4294.59
961.00	4184.00
961.17	4163.52
961.33	4331.45
961.50	4296.64
961.66	4339.65
961.82	4159.42
961.99	4204.48
962.15	4313.02
962.31	4229.06
962.48	4192.19
962.64	4313.02
962.81	4245.44
962.97	4243.39
963.13	4270.01
963.30	4310.97
963.46	4200.38
963.62	4190.14
963.79	4155.33
963.95	4177.86
964.12	4304.83
964.28	4188.10
964.44	4257.73
964.61	4145.09
964.77	4274.11
964.93	4140.99
965.10	4220.86
965.26	4265.92
965.42	4241.34
965.59	4253.63
965.75	4134.85
965.92	4181.95
966.08	4218.82
966.24	4192.19
966.41	4220.86
966.57	4124.61
966.73	4282.30
966.90	4143.04
967.06	4106.18
967.22	4061.12
967.39	4020.16
967.55	4083.65
967.71	4005.83
967.88	4091.84
968.04	4022.21
968.20	4001.73
968.37	4077.51
968.53	3887.04
968.69	4188.10
968.85	4032.45
969.02	4169.66
969.18	3987.40
969.34	4050.88
969.51	4044.74
969.67	4167.62
969.83	3966.92
970.00	4044.74
970.16	3983.30
970.32	4034.50
970.48	3936.20
970.65	3921.86
970.81	3923.91
970.97	3897.28
971.14	3901.38
971.30	3938.24
971.46	3942.34
971.63	3975.11
971.79	3966.92
971.95	3885.00
972.11	3833.80
972.28	3921.86
972.44	4007.87
972.60	3962.82
972.76	3868.61
972.93	3897.28
973.09	3889.09
973.25	3968.96
973.42	3753.93
973.58	3868.61
973.74	3841.99
973.90	3778.50
974.07	3766.21
974.23	3803.08
974.39	3835.85
974.55	3768.26
974.72	3821.51
974.88	3782.60
975.04	3755.97
975.20	3813.32
975.37	3733.45
975.53	3743.69
975.69	3790.79
975.85	3760.07
976.01	3657.67
976.18	3768.26
976.34	3747.78
976.50	3704.78
976.66	3792.84
976.83	3672.01
976.99	3536.84
977.15	3649.48
977.31	3598.28
977.47	3561.42
977.64	3620.81
977.80	3641.29
977.96	3647.43
978.12	3651.53
978.29	3723.21
978.45	3557.32
978.61	3635.14
978.77	3538.89
978.93	3612.62
979.10	3600.33
979.26	3542.99
979.42	3637.19
979.58	3524.55
979.74	3612.62
979.91	3559.37
980.07	3600.33
980.23	3532.75
980.39	3571.66
980.55	3565.51
980.71	3518.41
980.88	3428.30
981.04	3452.88
981.20	3434.44
981.36	3520.46
981.52	3518.41
981.68	3495.88
981.85	3506.12
982.01	3467.21
982.17	3370.96
982.33	3463.12
982.49	3463.12
982.65	3409.87
982.82	3420.11
982.98	3381.20
983.14	3340.24
983.30	3389.39
983.46	3373.00
983.62	3305.42
983.79	3317.71
983.95	3336.14
984.11	3317.71
984.27	3368.91
984.43	3352.52
984.59	3223.50
984.75	3391.44
984.91	3354.57
985.08	3313.61
985.24	3299.28
985.40	3430.35
985.56	3198.93
985.72	3223.50
985.88	3180.50
986.04	3262.41
986.20	3239.89
986.37	3172.30
986.53	3180.50
986.69	3239.89
986.85	3198.93
987.01	3153.87
987.17	3141.58
987.33	3176.40
987.49	3139.54
987.65	3225.55
987.82	3178.45
987.98	3145.68
988.14	3239.89
988.30	3049.43
988.46	3121.10
988.62	3082.19
988.78	3061.71
988.94	3119.06
989.10	3082.19
989.26	3061.71
989.42	3080.14
989.59	2985.94
989.75	3014.61
989.91	3043.28
990.07	2994.13
990.23	3024.85
990.39	2908.12
990.55	3110.86
990.71	3028.95
990.87	3020.75
991.03	3002.32
991.19	2899.92
991.35	2967.51
991.51	2953.17
991.67	2983.89
991.83	3117.01
992.00	2901.97
992.16	3000.27
992.32	2992.08
992.48	2959.31
992.64	2852.82
992.80	2908.12
992.96	2979.79
993.12	3000.27
993.28	3006.42
993.44	2977.75
993.60	2959.31
993.76	2947.03
993.92	2895.83
994.08	2910.16
994.24	2938.84
994.40	2830.29
994.56	2938.84
994.72	2885.59
994.88	2985.94
995.04	2918.36
995.20	2926.55
995.36	2869.20
995.52	2801.62
995.68	2793.43
995.84	2779.09
996.00	2910.16
996.16	2719.70
996.32	2801.62
996.48	2824.15
996.64	2762.71
996.80	2744.28
996.96	2781.14
997.12	2840.53
997.28	2748.37
997.44	2736.09
997.60	2697.17
997.76	2758.61
997.92	2719.70
998.08	2770.90
998.24	2742.23
998.40	2770.90
998.56	2787.29
998.72	2645.98
998.88	2729.94
999.04	2762.71
999.20	2748.37
999.36	2643.93
999.52	2713.56
999.68	2721.75
999.84	2617.30
1000.00	2658.26
1000.16	2762.71
1000.32	2615.26
1000.48	2641.88
1000.64	2588.63
1000.80	2598.87
1000.95	2580.44
1001.11	2623.45
1001.27	2559.96
1001.43	2643.93
1001.59	2615.26
1001.75	2586.58
1001.91	2605.02
1002.07	2586.58
1002.23	2510.81
1002.39	2566.10
1002.55	2473.95
1002.71	2564.06
1002.87	2553.82
1003.03	2506.71
1003.19	2539.48
1003.34	2551.77
1003.50	2514.91
1003.66	2502.62
1003.82	2541.53
1003.98	2428.89
1004.14	2541.53
1004.30	2439.13
1004.46	2494.43
1004.62	2428.89
1004.78	2539.48
1004.94	2435.03
1005.09	2463.71
1005.25	2486.23
1005.41	2371.55
1005.57	2416.60
1005.73	2383.84
1005.89	2338.78
1006.05	2498.52
1006.21	2498.52
1006.37	2361.31
1006.52	2422.75
1006.68	2414.56
1006.84	2412.51
1007.00	2467.80
1007.16	2478.04
1007.32	2383.84
1007.48	2299.87
1007.64	2342.88
1007.79	2424.80
1007.95	2416.60
1008.11	2459.61
1008.27	2260.96
1008.43	2373.60
1008.59	2365.40
1008.75	2469.85
1008.91	2297.82
1009.06	2389.98
1009.22	2349.02
1009.38	2369.50
1009.54	2404.32
1009.70	2277.34
1009.86	2250.72
1010.01	2357.21
1010.17	2361.31
1010.33	2281.44
1010.49	2287.58
1010.65	2281.44
1010.81	2269.15
1010.96	2187.23
1011.12	2271.20
1011.28	2324.44
1011.44	2281.44
1011.60	2275.29
1011.76	2273.25
1011.91	2398.17
1012.07	2207.71
1012.23	2279.39
1012.39	2209.76
1012.55	2181.09
1012.71	2230.24
1012.86	2244.57
1013.02	2230.24
1013.18	2172.89
1013.34	2156.51
1013.50	2297.82
1013.65	2232.29
1013.81	2174.94
1013.97	2220.00
1014.13	2123.74
1014.29	2187.23
1014.44	2222.05
1014.60	2162.66
1014.76	2224.09
1014.92	2281.44
1015.07	2103.26
1015.23	2154.46
1015.39	2185.18
1015.55	2189.28
1015.71	2095.07
1015.86	2078.69
1016.02	2150.37
1016.18	2070.50
1016.34	2101.22
1016.49	2197.47
1016.65	2109.41
1016.81	2070.50
1016.97	2113.50
1017.12	2119.65
1017.28	2076.64
1017.44	2064.35
1017.60	2070.50
1017.75	2015.20
1017.91	2131.94
1018.07	2086.88
1018.23	2103.26
1018.38	2133.98
1018.54	2066.40
1018.70	2060.26
1018.86	2097.12
1019.01	2004.96
1019.17	2029.54
1019.33	2107.36
1019.49	2090.98
1019.64	2082.78
1019.80	2060.26
1019.96	2066.40
1020.12	2074.59
1020.27	2107.36
1020.43	2109.41
1020.59	2068.45
1020.74	2060.26
1020.90	2115.55
1021.06	2000.87
1021.22	1986.53
1021.37	1931.23
1021.53	1966.05
1021.69	2004.96
1021.84	1951.71
1022.00	2070.50
1022.16	2007.01
1022.31	1949.67
1022.47	1966.05
1022.63	1923.04
1022.79	1955.81
1022.94	1964.00
1023.10	2056.16
1023.26	1976.29
1023.41	1970.15
1023.57	1918.95
1023.73	1980.39
1023.88	1961.95
1024.04	1923.04
1024.20	1933.28
1024.35	1976.29
1024.51	1923.04
1024.67	1955.81
1024.82	1978.34
1024.98	1892.32
1025.14	1968.10
1025.29	1863.65
1025.45	1947.62
1025.61	1929.19
1025.76	1920.99
1025.92	1953.76
1026.08	1896.42
1026.23	1943.52
1026.39	1902.56
1026.55	1818.60
1026.70	1837.03
1026.86	1865.70
1027.02	1902.56
1027.17	1933.28
1027.33	1843.17
1027.48	1853.41
1027.64	1816.55
1027.80	1904.61
1027.95	1927.14
1028.11	1888.23
1028.27	1859.56
1028.42	1873.89
1028.58	1898.47
1028.73	1841.12
1028.89	1849.32
1029.05	1890.28
1029.20	1998.82
>>>>>End Processed Spectral Data<<<<<
