SpectraSuite Data File
++++++++++++++++++++++++++++++++++++
Date: Tue Jun 13 12:03:49 CEST 2017
User: INFO_000
Dark Spectrum Present: No
Reference Spectrum Present: No
Number of Sampled Component Spectra: 1
Spectrometers: USB4H00879
Integration Time (usec): 30000 (USB4H00879)
Spectra Averaged: 1 (USB4H00879)
Boxcar Smoothing: 0 (USB4H00879)
Correct for Electrical Dark: No (USB4H00879)
Strobe/Lamp Enabled: No (USB4H00879)
Correct for Detector Non-linearity: No (USB4H00879)
Correct for Stray Light: No (USB4H00879)
Number of Pixels in Processed Spectrum: 3648
>>>>>Begin Processed Spectral Data<<<<<
345.13	1337.32
345.34	1337.32
345.56	1337.32
345.78	1406.95
345.99	1384.43
346.21	1511.40
346.42	1568.74
346.64	1464.30
346.86	1513.45
347.07	1474.54
347.29	1511.40
347.50	1501.16
347.72	1517.54
347.94	1636.33
348.15	1470.44
348.37	1486.83
348.59	1507.30
348.80	1466.35
349.02	1607.66
349.23	1607.66
349.45	1548.26
349.67	1578.98
349.88	1603.56
350.10	1703.91
350.31	1646.57
350.53	1644.52
350.75	1683.43
350.96	1585.13
351.18	1595.37
351.39	1560.55
351.61	1609.70
351.82	1591.27
352.04	1730.53
352.26	1599.46
352.47	1646.57
352.69	1656.81
352.90	1562.60
353.12	1591.27
353.34	1638.38
353.55	1681.38
353.77	1630.18
353.98	1599.46
354.20	1621.99
354.41	1703.91
354.63	1648.61
354.85	1730.53
355.06	1640.42
355.28	1644.52
355.49	1685.48
355.71	1693.67
355.92	1701.86
356.14	1685.48
356.35	1675.24
356.57	1626.09
356.79	1685.48
357.00	1609.70
357.22	1728.49
357.43	1621.99
357.65	1658.85
357.86	1650.66
358.08	1708.01
358.29	1656.81
358.51	1638.38
358.72	1732.58
358.94	1644.52
359.16	1640.42
359.37	1640.42
359.59	1619.94
359.80	1703.91
360.02	1724.39
360.23	1771.49
360.45	1697.77
360.66	1751.01
360.88	1675.24
361.09	1687.53
361.31	1687.53
361.52	1689.57
361.74	1757.16
361.95	1771.49
362.17	1705.96
362.38	1740.77
362.60	1732.58
362.81	1771.49
363.03	1738.73
363.24	1771.49
363.46	1781.73
363.67	1761.25
363.89	1720.29
364.10	1748.97
364.32	1751.01
364.53	1748.97
364.75	1642.47
364.96	1710.05
365.18	1699.81
365.39	1685.48
365.61	1748.97
365.82	1765.35
366.04	1718.25
366.25	1687.53
366.47	1822.69
366.68	1714.15
366.90	1785.83
367.11	1775.59
367.33	1808.36
367.54	1785.83
367.76	1740.77
367.97	1857.51
368.19	1738.73
368.40	1804.26
368.62	1775.59
368.83	1773.54
369.05	1736.68
369.26	1726.44
369.48	1734.63
369.69	1720.29
369.91	1794.02
370.12	1820.64
370.33	1834.98
370.55	1822.69
370.76	1769.44
370.98	1771.49
371.19	1796.07
371.41	1777.64
371.62	1828.84
371.84	1757.16
372.05	1783.78
372.27	1769.44
372.48	1808.36
372.69	1834.98
372.91	1908.71
373.12	1896.42
373.34	1865.70
373.55	1777.64
373.77	1849.32
373.98	1853.41
374.20	1857.51
374.41	1880.04
374.62	1882.08
374.84	1837.03
375.05	1904.61
375.27	1855.46
375.48	1972.19
375.70	1859.56
375.91	1912.80
376.12	1894.37
376.34	1925.09
376.55	1904.61
376.77	1896.42
376.98	1888.23
377.19	1847.27
377.41	1896.42
377.62	1980.39
377.84	1914.85
378.05	1935.33
378.27	1953.76
378.48	1933.28
378.69	2025.44
378.91	1925.09
379.12	1972.19
379.34	2015.20
379.55	1976.29
379.76	1992.67
379.98	1970.15
380.19	1912.80
380.41	1941.47
380.62	1968.10
380.83	1923.04
381.05	1908.71
381.26	2015.20
381.47	1933.28
381.69	2004.96
381.90	2097.12
382.12	1994.72
382.33	1984.48
382.54	1984.48
382.76	1992.67
382.97	2025.44
383.19	1951.71
383.40	2025.44
383.61	1990.63
383.83	2072.54
384.04	2015.20
384.25	2068.45
384.47	2027.49
384.68	2019.30
384.89	1890.28
385.11	2025.44
385.32	2082.78
385.54	2076.64
385.75	2019.30
385.96	2158.56
386.18	2068.45
386.39	2054.11
386.60	2009.06
386.82	2054.11
387.03	2131.94
387.24	2252.77
387.46	2140.13
387.67	2119.65
387.88	2117.60
388.10	2193.37
388.31	2238.43
388.52	2240.48
388.74	2213.85
388.95	2215.90
389.16	2187.23
389.38	2217.95
389.59	2246.62
389.80	2279.39
390.02	2154.46
390.23	2267.10
390.44	2154.46
390.66	2205.66
390.87	2185.18
391.08	2289.63
391.30	2263.01
391.51	2258.91
391.72	2287.58
391.94	2283.49
392.15	2252.77
392.36	2293.72
392.58	2275.29
392.79	2267.10
393.00	2267.10
393.22	2330.59
393.43	2375.64
393.64	2340.83
393.85	2473.95
394.07	2301.92
394.28	2365.40
394.49	2400.22
394.71	2365.40
394.92	2328.54
395.13	2435.03
395.35	2375.64
395.56	2422.75
395.77	2475.99
395.98	2449.37
396.20	2377.69
396.41	2406.36
396.62	2455.51
396.84	2447.32
397.05	2553.82
397.26	2484.19
397.47	2482.14
397.69	2516.95
397.90	2539.48
398.11	2533.34
398.32	2488.28
398.54	2555.86
398.75	2588.63
398.96	2523.10
399.18	2615.26
399.39	2607.06
399.60	2617.30
399.81	2602.97
400.03	2574.30
400.24	2740.18
400.45	2537.43
400.66	2674.65
400.88	2637.78
401.09	2660.31
401.30	2668.50
401.51	2801.62
401.73	2627.54
401.94	2783.19
402.15	2744.28
402.36	2756.57
402.58	2701.27
402.79	2709.46
403.00	2731.99
403.21	2656.22
403.43	2760.66
403.64	2686.94
403.85	2758.61
404.06	2783.19
404.27	2777.05
404.49	2768.85
404.70	2801.62
404.91	2836.44
405.12	2891.73
405.34	2680.79
405.55	2895.83
405.76	2811.86
405.97	2856.92
406.19	2815.96
406.40	2830.29
406.61	2799.57
406.82	2865.11
407.03	2942.93
407.25	2848.72
407.46	3028.95
407.67	2928.60
407.88	2949.08
408.09	2951.12
408.31	3022.80
408.52	3022.80
408.73	2869.20
408.94	2959.31
409.15	3039.19
409.37	3020.75
409.58	3016.66
409.79	3010.51
410.00	3114.96
410.21	3006.42
410.43	2928.60
410.64	3047.38
410.85	3102.67
411.06	3123.15
411.27	3069.91
411.48	3153.87
411.70	3069.91
411.91	3170.26
412.12	3200.98
412.33	3026.90
412.54	3071.95
412.76	3313.61
412.97	3184.59
413.18	3094.48
413.39	3303.37
413.60	3268.56
413.81	3215.31
414.03	3200.98
414.24	3098.58
414.45	3291.09
414.66	3065.81
414.87	3207.12
415.08	3231.69
415.30	3260.37
415.51	3403.72
415.72	3268.56
415.93	3350.48
416.14	3209.17
416.35	3405.77
416.56	3252.17
416.78	3280.85
416.99	3342.28
417.20	3254.22
417.41	3475.40
417.62	3375.05
417.83	3502.03
418.04	3456.97
418.26	3438.54
418.47	3485.64
418.68	3403.72
418.89	3440.59
419.10	3510.22
419.31	3493.83
419.52	3559.37
419.73	3567.56
419.95	3553.23
420.16	3487.69
420.37	3555.27
420.58	3657.67
420.79	3454.92
421.00	3540.94
421.21	3604.42
421.42	3690.44
421.63	3661.77
421.85	3489.74
422.06	3710.92
422.27	3727.30
422.48	3573.71
422.69	3663.82
422.90	3741.64
423.11	3774.41
423.32	3639.24
423.53	3827.65
423.75	3792.84
423.96	3907.52
424.17	3866.56
424.38	3885.00
424.59	3889.09
424.80	4032.45
425.01	3846.09
425.22	3952.58
425.43	3903.43
425.64	4011.97
425.85	4095.94
426.06	3882.95
426.28	4083.65
426.49	3979.20
426.70	4044.74
426.91	4165.57
427.12	4108.23
427.33	4097.99
427.54	4138.94
427.75	4116.42
427.96	4159.42
428.17	4138.94
428.38	4302.78
428.59	4239.30
428.80	4165.57
429.01	4263.87
429.23	4261.82
429.44	4425.66
429.65	4362.17
429.86	4390.84
430.07	4288.45
430.28	4274.11
430.49	4487.10
430.70	4550.59
430.91	4431.80
431.12	4513.72
431.33	4468.67
431.54	4515.77
431.75	4411.32
431.96	4671.42
432.17	4505.53
432.38	4521.92
432.59	4695.99
432.80	4532.15
433.01	4702.14
433.22	4718.52
433.43	4677.56
433.64	4708.28
433.85	4583.35
434.06	4693.94
434.27	4532.15
434.49	4636.60
434.70	4659.13
434.91	4698.04
435.12	4796.34
435.33	4880.31
435.54	4902.84
435.75	4720.57
435.96	4790.20
436.17	4773.82
436.38	4986.80
436.59	4978.61
436.80	4880.31
437.01	5154.74
437.22	5017.52
437.43	4982.71
437.64	4812.73
437.85	5013.43
438.06	5044.15
438.27	4976.56
438.48	4976.56
438.69	5013.43
438.90	5031.86
439.11	5173.17
439.32	5105.59
439.53	5164.98
439.74	5242.80
439.95	5312.43
440.16	5203.89
440.37	5177.26
440.57	5240.75
440.78	5408.69
440.99	5470.12
441.20	5355.44
441.41	5285.81
441.62	5445.55
441.83	5300.14
442.04	5466.03
442.25	5316.53
442.46	5363.63
442.67	5523.37
442.88	5810.09
443.09	5472.17
443.30	5449.64
443.51	5476.27
443.72	5705.64
443.93	5504.94
444.14	5787.56
444.35	5570.48
444.56	5638.06
444.77	5607.34
444.98	5627.82
445.19	5818.28
445.40	5666.73
445.61	5840.81
445.81	5636.01
446.02	5783.46
446.23	5693.35
446.44	5636.01
446.65	5742.50
446.86	5887.91
447.07	5855.14
447.28	5957.54
447.49	6006.69
447.70	5896.10
447.91	5851.05
448.12	5973.92
448.33	6025.12
448.54	6061.99
448.74	6037.41
448.95	6102.95
449.16	6031.27
449.37	6229.92
449.58	6012.84
449.79	6303.65
450.00	6102.95
450.21	6100.90
450.42	6297.50
450.63	6404.00
450.84	6207.39
451.05	6236.06
451.25	6242.21
451.46	6326.18
451.67	6221.73
451.88	6434.72
452.09	6539.16
452.30	6256.54
452.51	6422.43
452.72	6504.35
452.93	6633.37
453.13	6520.73
453.34	6502.30
453.55	6625.18
453.76	6580.12
453.97	6778.78
454.18	6754.20
454.39	6838.17
454.60	6561.69
454.81	6770.58
455.01	6815.64
455.22	6666.14
455.43	6901.65
455.64	6981.53
455.85	7030.68
456.06	7126.93
456.27	6928.28
456.48	6989.72
456.68	7128.98
456.89	6942.61
457.10	7235.47
457.31	7253.91
457.52	7081.88
457.73	7182.23
457.94	7221.14
458.14	7194.51
458.35	7464.85
458.56	7452.56
458.77	7196.56
458.98	7593.87
459.19	7270.29
459.39	7468.94
459.60	7751.56
459.81	7407.50
460.02	7718.79
460.23	7559.05
460.44	7915.40
460.65	7892.87
460.85	7759.75
461.06	7827.34
461.27	7729.03
461.48	7964.55
461.69	8120.20
461.89	7856.01
462.10	8083.33
462.31	7784.33
462.52	7993.22
462.73	7980.93
462.94	8216.45
463.14	8171.40
463.35	8214.40
463.56	8523.65
463.77	8345.47
463.98	8474.49
464.18	8335.23
464.39	8660.86
464.60	8517.50
464.81	8693.63
465.02	8621.95
465.23	8593.28
465.43	8621.95
465.64	8839.03
465.85	8769.40
466.06	8615.80
466.27	9045.88
466.47	9035.64
466.68	9142.13
466.89	9066.36
467.10	9129.84
467.30	9013.11
467.51	9244.53
467.72	9209.72
467.93	9201.52
468.14	9265.01
468.34	9406.32
468.55	9428.85
468.76	9424.75
468.97	9451.38
469.17	9561.97
469.38	9592.69
469.59	9887.59
469.80	9533.29
470.01	9840.49
470.21	9852.78
470.42	9936.74
470.63	9920.36
470.84	9961.32
471.04	10039.14
471.25	10055.53
471.46	10231.65
471.67	10145.64
471.87	10018.66
472.08	10354.53
472.29	10475.36
472.50	10610.53
472.70	10575.71
472.91	10565.47
473.12	10768.22
473.33	10790.75
473.53	10788.70
473.74	10843.99
473.95	10923.87
474.16	11132.76
474.36	11224.92
474.57	11112.28
474.78	11245.40
474.99	11202.39
475.19	11249.49
475.40	11503.44
475.61	11626.32
475.81	11790.16
476.02	12021.58
476.23	11800.40
476.44	11677.52
476.64	12013.38
476.85	11888.46
477.06	11898.70
477.27	12085.06
477.47	12373.83
477.68	12246.85
477.89	12590.91
478.09	12341.06
478.30	12613.44
478.51	12857.15
478.71	12762.94
478.92	12697.41
479.13	12781.37
479.34	13057.85
479.54	12773.18
479.75	13141.82
479.96	13094.71
480.16	13346.61
480.37	13391.67
480.58	13256.50
480.78	13573.94
480.99	13594.42
481.20	13565.74
481.41	13842.22
481.61	13846.32
481.82	14128.94
482.03	13653.81
482.23	13870.89
482.44	14327.59
482.65	13934.38
482.85	14282.53
483.06	14542.63
483.27	14448.42
483.47	14374.69
483.68	14503.71
483.89	14817.05
484.09	14694.18
484.30	14604.07
484.51	15023.90
484.71	15202.07
484.92	15042.33
485.13	15261.46
485.33	15224.60
485.54	15480.60
485.75	15361.81
485.95	15306.52
486.16	15570.71
486.37	15769.36
486.57	15408.92
486.78	15611.67
486.98	15865.61
487.19	15929.10
487.40	15828.75
487.60	16035.60
487.81	16291.59
488.02	16125.71
488.22	16398.09
488.43	16359.17
488.64	16439.05
488.84	16484.10
489.05	16572.16
489.25	16561.92
489.46	17141.50
489.67	16621.31
489.87	16903.93
490.08	16750.34
490.29	17088.25
490.49	17082.11
490.70	17247.99
490.90	17237.75
491.11	17184.51
491.32	17643.25
491.52	17336.06
491.73	17465.08
491.94	17567.48
492.14	17837.81
492.35	17874.67
492.55	17878.77
492.76	18020.08
492.97	18173.67
493.17	18321.13
493.38	18185.96
493.58	18568.93
493.79	18345.70
494.00	18454.25
494.20	18245.35
494.41	18710.24
494.61	18433.77
494.82	18712.29
495.02	18837.22
495.23	18867.94
495.44	18831.07
495.64	18986.72
495.85	19011.29
496.05	19472.09
496.26	18933.47
496.47	19537.62
496.67	19085.02
496.88	19302.11
497.08	19437.27
497.29	19541.72
497.49	19441.37
497.70	19547.86
497.91	19910.35
498.11	19486.42
498.32	19705.56
498.52	20098.77
498.73	20010.70
498.93	19994.32
499.14	20186.83
499.34	19961.55
499.55	20467.40
499.76	20381.38
499.96	20553.41
500.17	20342.47
500.37	20610.76
500.58	20768.45
500.78	20643.52
500.99	20487.88
501.19	20745.92
501.40	21112.51
501.60	20979.39
501.81	20637.38
502.02	20952.77
502.22	20858.56
502.43	20973.25
502.63	21241.53
502.84	21159.61
503.04	21372.60
503.25	21311.16
503.45	21157.57
503.66	21552.82
503.86	21556.92
504.07	21577.40
504.27	21507.77
504.48	21857.97
504.68	21552.82
504.89	21943.99
505.09	22093.49
505.30	21896.88
505.50	21935.79
505.71	21847.73
505.91	22073.01
506.12	22087.34
506.32	21874.35
506.53	22142.64
506.73	22306.48
506.94	22613.67
507.14	22511.27
507.35	22288.04
507.55	22523.56
507.76	22879.91
507.96	22374.06
508.17	22417.07
508.37	22509.22
508.58	22236.84
508.78	22857.38
508.99	22955.68
509.19	22890.15
509.40	22752.93
509.60	22851.24
509.81	22888.10
510.01	22888.10
510.22	22767.27
510.42	23180.96
510.63	23172.77
510.83	23215.77
511.04	23119.52
511.24	23410.33
511.44	23217.82
511.65	23150.24
511.85	23383.71
512.06	23359.13
512.26	23586.46
512.47	23430.81
512.67	23537.30
512.88	23541.40
513.08	23303.84
513.29	23973.52
513.49	23803.54
513.69	23672.47
513.90	23819.92
514.10	23922.32
514.31	23895.70
514.51	24108.69
514.72	24004.24
514.92	23928.47
515.13	24135.31
515.33	24182.42
515.53	24077.97
515.74	24358.54
515.94	24499.85
516.15	24409.74
516.35	24155.79
516.56	24460.94
516.76	24266.38
516.96	24266.38
517.17	24520.33
517.37	24460.94
517.58	24352.40
517.78	24653.45
517.99	24573.58
518.19	24583.82
518.39	25112.19
518.60	24950.40
518.80	24968.84
519.01	25022.08
519.21	24716.93
519.41	25452.16
519.62	25067.14
519.82	25052.80
520.03	25321.09
520.23	24886.92
520.43	24956.55
520.64	25708.15
520.84	25513.59
521.05	25306.75
521.25	25695.86
521.45	25556.60
521.66	25691.77
521.86	25661.05
522.07	25558.65
522.27	25702.01
522.47	26052.21
522.68	26111.60
522.88	25990.77
523.08	26248.82
523.29	26039.92
523.49	26322.54
523.70	26500.72
523.90	26457.71
524.10	26269.30
524.31	26402.41
524.51	26056.31
524.71	26484.33
524.92	26445.42
525.12	26566.25
525.33	26531.44
525.53	26658.41
525.73	27043.43
525.94	26799.72
526.14	26953.32
526.34	27127.39
526.55	27131.49
526.75	27149.92
526.95	27162.21
527.16	27168.35
527.36	27375.20
527.56	27377.25
527.77	27598.43
527.97	27580.00
528.17	27381.34
528.38	27373.15
528.58	27469.40
528.78	27799.13
528.99	27690.59
529.19	28055.12
529.39	27862.61
529.60	28347.98
529.80	28003.92
530.00	28069.46
530.21	28251.73
530.41	28438.09
530.61	28194.39
530.82	28280.40
531.02	28204.63
531.22	28589.64
531.43	28915.27
531.63	28855.88
531.83	28962.37
532.04	28784.20
532.24	28935.75
532.44	29226.56
532.64	29230.66
532.85	28976.71
533.05	29183.55
533.25	29333.06
533.46	29122.12
533.66	29634.11
533.86	29738.55
534.07	29673.02
534.27	29869.62
534.47	29849.14
534.67	29748.79
534.88	29681.21
535.08	29863.48
535.28	30053.94
535.49	29976.12
535.69	29916.73
535.89	30436.91
536.09	30268.98
536.30	30590.51
536.50	30285.36
536.70	30727.72
536.91	30217.78
537.11	30670.38
537.31	30760.49
537.51	30801.45
537.72	30844.46
537.92	31159.84
538.12	30961.19
538.32	31055.40
538.53	30987.82
538.73	30885.42
538.93	31086.12
539.13	31192.61
539.34	30875.18
539.54	31340.07
539.74	31589.92
539.94	31706.65
540.15	31180.32
540.35	31776.28
540.55	31585.82
540.75	31809.05
540.96	32124.44
541.16	31618.59
541.36	31559.20
541.56	31168.04
541.77	32247.32
541.97	31850.01
542.17	32030.23
542.37	32146.97
542.58	32089.62
542.78	31995.42
542.98	32110.10
543.18	32364.05
543.38	32636.43
543.59	32523.79
543.79	32527.89
543.99	32499.22
544.19	32900.62
544.40	32740.88
544.60	32658.96
544.80	32820.75
545.00	32802.32
545.20	33121.80
545.41	32943.63
545.61	32937.48
545.81	33396.23
546.01	33230.34
546.21	32722.44
546.42	32929.29
546.62	33240.58
546.82	33037.83
547.02	33234.44
547.22	33361.41
547.43	33349.12
547.63	33007.11
547.83	33316.36
548.03	33170.95
548.23	33424.90
548.44	33656.32
548.64	33342.98
548.84	33467.91
549.04	33697.28
549.24	33967.61
549.45	33859.07
549.65	33617.41
549.85	33777.15
550.05	34014.71
550.25	33885.69
550.45	34029.05
550.66	33859.07
550.86	34215.41
551.06	34299.38
551.26	33814.01
551.46	34002.43
551.66	34364.92
551.87	34043.38
552.07	34299.38
552.27	34260.47
552.47	34303.48
552.67	34352.63
552.87	33920.51
553.07	34678.25
553.28	34266.61
553.48	34864.62
553.68	34491.89
553.88	34625.01
554.08	34299.38
554.28	34547.18
554.48	34641.39
554.69	34594.29
554.89	34631.15
555.09	34577.90
555.29	34463.22
555.49	34874.86
555.69	34653.68
555.89	34704.88
556.10	34762.22
556.30	35028.46
556.50	34821.61
556.70	34469.36
556.90	34899.44
557.10	34909.68
557.30	34700.78
557.50	34944.49
557.70	34721.26
557.91	35141.10
558.11	34686.45
558.31	34727.41
558.51	34702.83
558.71	35106.28
558.91	35253.73
559.11	35231.21
559.31	35245.54
559.51	35231.21
559.72	34999.79
559.92	35407.33
560.12	34887.15
560.32	35458.53
560.52	35206.63
560.72	35263.97
560.92	35337.70
561.12	35263.97
561.32	35505.63
561.52	35567.07
561.72	35419.62
561.93	35167.72
562.13	35829.21
562.33	35259.88
562.53	36046.30
562.73	35096.04
562.93	35534.31
563.13	35765.73
563.33	35671.52
563.53	36046.30
563.73	35653.09
563.93	35689.95
564.13	35960.28
564.33	35749.34
564.53	35864.03
564.74	36201.94
564.94	35806.69
565.14	35804.64
565.34	35667.42
565.54	35761.63
565.74	35792.35
565.94	36275.67
566.14	35806.69
566.34	35761.63
566.54	35984.86
566.74	35724.77
566.94	36345.30
567.14	36138.46
567.34	35849.69
567.54	36115.93
567.74	35886.56
567.94	35837.41
568.14	36015.58
568.34	36240.86
568.54	36134.36
568.74	36320.73
568.94	36244.95
569.14	36416.98
569.34	36529.62
569.54	36455.89
569.75	36273.62
569.95	36679.12
570.15	36931.02
570.35	36425.17
570.55	36429.27
570.75	36097.50
570.95	36240.86
571.15	36664.78
571.35	36314.58
571.55	36640.21
571.75	36351.45
571.95	36709.84
572.15	36427.22
572.35	36453.84
572.55	36425.17
572.75	36779.47
572.95	36500.95
573.15	36898.25
573.35	36695.50
573.55	36548.05
573.75	36490.71
573.95	36953.55
574.15	36810.19
574.35	37225.93
574.55	36937.16
574.75	36775.37
574.95	36832.72
575.15	36660.69
575.34	36951.50
575.54	37131.72
575.74	37184.97
575.94	36978.12
576.14	36937.16
576.34	37098.95
576.54	37400.01
576.74	37266.89
576.94	37385.67
577.14	37146.06
577.34	37019.08
577.54	37125.58
577.74	37565.89
577.94	37158.34
578.14	37465.54
578.34	37561.79
578.54	36885.97
578.74	37150.15
578.94	37457.35
579.14	37346.76
579.34	37424.58
579.54	37537.22
579.74	37815.74
579.94	37572.03
580.13	37434.82
580.33	37522.88
580.53	37649.86
580.73	37639.62
580.93	37774.78
581.13	37600.71
581.33	37641.67
581.53	37494.21
581.73	37928.38
581.93	38249.91
582.13	37928.38
582.33	37789.12
582.53	37828.03
582.73	38481.33
582.92	38167.99
583.12	38178.23
583.32	37727.68
583.52	37895.61
583.72	38112.70
583.92	38311.35
584.12	37955.00
584.32	38895.02
584.52	38231.48
584.72	38157.75
584.92	38452.66
585.11	38571.44
585.31	38127.03
585.51	38546.87
585.71	38561.20
585.91	38600.12
586.11	38211.00
586.31	38458.81
586.51	38645.17
586.71	38471.09
586.91	39218.60
587.10	38677.94
587.30	38890.93
587.50	38884.78
587.70	38809.01
587.90	38852.02
588.10	39048.62
588.30	38462.90
588.50	39103.92
588.69	39087.53
588.89	38915.50
589.09	38788.53
589.29	39194.03
589.49	39503.27
589.69	38960.56
589.89	38901.17
590.08	39173.55
590.28	39108.01
590.48	38911.41
590.68	38890.93
590.88	39159.21
591.08	38720.95
591.28	39407.01
591.47	39486.89
591.67	39179.69
591.87	39345.58
592.07	39101.87
592.27	39112.11
592.47	39452.07
592.67	38882.73
592.86	39339.43
593.06	39181.74
593.26	39316.90
593.46	39296.42
593.66	39327.14
593.86	39404.97
594.05	39349.67
594.25	39486.89
594.45	39226.79
594.65	39237.03
594.85	39230.89
595.05	39437.73
595.24	39355.82
595.44	39671.20
595.64	39636.39
595.84	39433.64
596.04	39364.01
596.23	39392.68
596.43	39816.61
596.63	39579.04
596.83	39746.98
597.03	39996.83
597.22	39882.14
597.42	39832.99
597.62	40033.69
597.82	39988.64
598.02	39777.70
598.21	40076.70
598.41	39687.59
598.61	39654.82
598.81	40041.88
599.01	40283.55
599.20	39728.55
599.40	39837.09
599.60	39890.34
599.80	40007.07
600.00	40209.82
600.19	40252.83
600.39	40072.60
600.59	40406.42
600.79	40179.10
600.98	40474.01
601.18	40150.43
601.38	40400.28
601.58	40318.36
601.78	40379.80
601.97	40279.45
602.17	41067.92
602.37	40404.38
602.57	40654.23
602.76	40580.50
602.96	40367.51
603.16	40768.91
603.36	40588.69
603.55	40672.66
603.75	40959.38
603.95	40840.59
604.15	40560.02
604.34	40674.71
604.54	41072.01
604.74	40719.76
604.94	41196.94
605.13	41123.21
605.33	40719.76
605.53	40650.13
605.73	41016.72
605.92	40990.09
606.12	41268.62
606.32	40867.22
606.52	41088.40
606.71	41096.59
606.91	40914.32
607.11	41239.95
607.30	41067.92
607.50	41117.07
607.70	41037.20
607.90	41285.00
608.09	41033.10
608.29	41217.42
608.49	41201.04
608.68	41190.80
608.88	41565.57
609.08	41332.11
609.28	41534.85
609.47	40811.92
609.67	41727.36
609.87	41291.15
610.06	41096.59
610.26	41618.82
610.46	41321.87
610.66	40879.50
610.85	40914.32
611.05	41178.51
611.25	41153.93
611.44	41403.78
611.64	41127.31
611.84	41153.93
612.03	40967.57
612.23	41448.84
612.43	41481.61
612.62	41162.12
612.82	41383.30
613.02	41348.49
613.21	41196.94
613.41	41422.22
613.61	41209.23
613.80	41176.46
614.00	41321.87
614.20	41215.37
614.39	41166.22
614.59	41557.38
614.79	41342.35
614.98	41160.08
615.18	41125.26
615.38	41534.85
615.57	41268.62
615.77	41520.52
615.97	41543.05
616.16	41125.26
616.36	41082.25
616.56	41151.88
616.75	41704.84
616.95	41004.43
617.15	41254.28
617.34	40760.72
617.54	41338.25
617.74	41463.18
617.93	41381.26
618.13	40703.38
618.32	41151.88
618.52	41100.68
618.72	40955.28
618.91	41067.92
619.11	40725.91
619.31	41403.78
619.50	40660.37
619.70	40816.02
619.90	41029.01
620.09	41180.56
620.29	40949.14
620.48	40643.99
620.68	40709.52
620.88	40838.54
621.07	40820.11
621.27	41178.51
621.46	40582.55
621.66	40945.04
621.86	40748.43
622.05	40715.67
622.25	40801.68
622.44	40557.97
622.64	40560.02
622.84	41102.73
623.03	40652.18
623.23	40988.05
623.42	40854.93
623.62	40834.45
623.82	40963.47
624.01	40797.59
624.21	40693.14
624.40	40621.46
624.60	40605.08
624.80	40684.95
624.99	40568.21
625.19	40467.86
625.38	40707.47
625.58	40390.04
625.77	40605.08
625.97	40811.92
626.17	40586.64
626.36	40578.45
626.56	40695.19
626.75	40361.37
626.95	41018.77
627.14	40228.25
627.34	40897.94
627.54	40336.79
627.73	40613.27
627.93	40254.87
628.12	40412.57
628.32	40265.11
628.51	40619.41
628.71	40340.89
628.90	40486.29
629.10	40564.12
629.30	40326.55
629.49	40625.56
629.69	40469.91
629.88	40625.56
630.08	40656.28
630.27	40271.26
630.47	40279.45
630.66	39955.87
630.86	40510.87
631.05	40009.12
631.25	40068.51
631.44	40170.91
631.64	40656.28
631.84	40215.96
632.03	40183.19
632.23	40721.81
632.42	40734.10
632.62	40441.24
632.81	40193.43
633.01	40211.87
633.20	40191.39
633.40	40408.47
633.59	40523.16
633.79	40127.90
633.98	40256.92
634.18	40344.98
634.37	39914.91
634.57	39892.38
634.76	40287.64
634.96	39968.16
635.15	40390.04
635.35	40068.51
635.54	40029.60
635.74	40453.53
635.93	40099.23
636.13	40148.38
636.32	40467.86
636.52	40299.93
636.71	40201.63
636.91	40328.60
637.10	39859.62
637.30	39957.92
637.49	40082.84
637.69	39908.77
637.88	40387.99
638.08	39900.58
638.27	40252.83
638.46	39859.62
638.66	39826.85
638.85	40154.52
639.05	40144.28
639.24	40334.74
639.44	39880.10
639.63	40408.47
639.83	40351.13
640.02	40117.66
640.22	39894.43
640.41	40160.67
640.61	39757.22
640.80	39978.40
640.99	39988.64
641.19	40330.65
641.38	39742.88
641.58	39689.63
641.77	39499.17
641.97	39728.55
642.16	39572.90
642.36	40002.97
642.55	39978.40
642.74	39830.94
642.94	39957.92
643.13	40043.93
643.33	39818.66
643.52	40349.08
643.72	40484.25
643.91	40138.14
644.10	39902.62
644.30	40197.53
644.49	39867.81
644.69	40109.47
644.88	39871.90
645.08	39777.70
645.27	40058.27
645.46	39818.66
645.66	39857.57
645.85	39976.35
646.05	39794.08
646.24	40566.16
646.43	40277.40
646.63	40314.26
646.82	40269.21
647.02	40175.00
647.21	39949.73
647.40	39644.58
647.60	39830.94
647.79	40277.40
647.99	40234.39
648.18	39706.02
648.37	40269.21
648.57	40312.22
648.76	39904.67
648.96	39771.55
649.15	40353.18
649.34	40424.86
649.54	39849.38
649.73	39820.70
649.92	40281.50
650.12	40201.63
650.31	40195.48
650.51	40293.79
650.70	40166.81
650.89	39599.52
651.09	40478.10
651.28	40105.37
651.47	40082.84
651.67	39890.34
651.86	40113.56
652.06	39691.68
652.25	39970.21
652.44	39830.94
652.64	39620.00
652.83	39914.91
653.02	39689.63
653.22	39970.21
653.41	39783.84
653.60	39376.30
653.80	39896.48
653.99	40447.38
654.18	39751.07
654.38	39650.72
654.57	39671.20
654.76	39599.52
654.96	39693.73
655.15	39462.31
655.34	40017.31
655.54	39372.20
655.73	39675.30
655.92	39611.81
656.12	39632.29
656.31	39800.22
656.50	39470.50
656.70	39720.35
656.89	39495.08
657.08	39837.09
657.28	39511.46
657.47	39832.99
657.66	39757.22
657.86	39693.73
658.05	39587.24
658.24	39687.59
658.43	39425.45
658.63	40002.97
658.82	39605.67
659.01	39620.00
659.21	39663.01
659.40	39497.13
659.59	39585.19
659.79	39847.33
659.98	39570.85
660.17	39820.70
660.36	39658.91
660.56	39882.14
660.75	39501.22
660.94	39652.77
661.14	39800.22
661.33	39398.82
661.52	39386.54
661.71	39663.01
661.91	39511.46
662.10	39202.22
662.29	39841.18
662.49	39384.49
662.68	39372.20
662.87	39638.44
663.06	39155.11
663.26	39282.09
663.45	39359.91
663.64	39347.62
663.83	39691.68
664.03	39687.59
664.22	39138.73
664.41	39220.65
664.60	39196.07
664.80	38868.40
664.99	39583.14
665.18	39228.84
665.37	39142.83
665.57	39632.29
665.76	39212.46
665.95	39198.12
666.14	39417.25
666.34	39302.57
666.53	39089.58
666.72	39239.08
666.91	39130.54
667.11	39110.06
667.30	38864.30
667.49	39392.68
667.68	39380.39
667.87	38901.17
668.07	39267.75
668.26	39232.94
668.45	39112.11
668.64	38878.64
668.84	39288.23
669.03	39177.64
669.22	39411.11
669.41	39333.29
669.60	39056.81
669.80	38622.64
669.99	38976.94
670.18	39005.61
670.37	38985.13
670.57	39153.07
670.76	38784.43
670.95	38778.29
671.14	38991.28
671.33	38458.81
671.53	39591.33
671.72	38606.26
671.91	39048.62
672.10	38626.74
672.29	38890.93
672.48	38892.97
672.68	38759.86
672.87	38839.73
673.06	38860.21
673.25	38378.93
673.44	38856.11
673.64	38397.37
673.83	38598.07
674.02	38510.00
674.21	38233.53
674.40	38907.31
674.59	38262.20
674.79	38014.40
674.98	38264.25
675.17	38411.70
675.36	38415.80
675.55	38559.16
675.74	38243.77
675.94	38262.20
676.13	38348.21
676.32	38741.42
676.51	38725.04
676.70	38614.45
676.89	38157.75
677.08	38223.29
677.28	37955.00
677.47	38360.50
677.66	38106.55
677.85	38239.67
678.04	38565.30
678.23	38114.75
678.42	38522.29
678.62	38010.30
678.81	38507.96
679.00	37879.23
679.19	38215.10
679.38	37969.34
679.57	38270.39
679.76	37744.06
679.96	38002.11
680.15	38075.84
680.34	37940.67
680.53	37975.48
680.72	38094.27
680.91	38106.55
681.10	37985.72
681.29	37961.15
681.48	37678.53
681.68	37877.18
681.87	37967.29
682.06	37758.40
682.25	37660.10
682.44	37748.16
682.63	37684.67
682.82	37619.14
683.01	37490.12
683.20	37494.21
683.39	37680.58
683.59	37502.40
683.78	37203.40
683.97	37232.07
684.16	37350.85
684.35	37242.31
684.54	37352.90
684.73	37287.37
684.92	37215.69
685.11	37311.94
685.30	37131.72
685.49	37586.37
685.69	37334.47
685.88	37430.72
686.07	37254.60
686.26	37002.70
686.45	37080.52
686.64	37174.73
686.83	37174.73
687.02	36853.20
687.21	37084.62
687.40	36828.62
687.59	37094.86
687.78	36564.43
687.97	37004.75
688.16	37160.39
688.35	36849.10
688.54	37076.43
688.74	36822.48
688.93	36464.08
689.12	36629.97
689.31	36705.74
689.50	36851.15
689.69	36677.07
689.88	36613.59
690.07	36683.22
690.26	36531.67
690.45	36890.06
690.64	36353.49
690.83	36304.34
691.02	36304.34
691.21	36148.70
691.40	36314.58
691.59	36523.47
691.78	36232.66
691.97	36433.36
692.16	36142.55
692.35	36259.29
692.54	36177.37
692.73	36412.88
692.92	36261.33
693.11	36054.49
693.30	35683.81
693.49	36171.22
693.68	36292.05
693.87	36089.31
694.06	35747.29
694.25	36021.72
694.44	36220.38
694.63	36406.74
694.82	36249.05
695.01	35784.16
695.20	35696.10
695.39	35599.84
695.58	35638.75
695.77	35425.76
695.96	35784.16
696.15	35816.93
696.34	35317.22
696.53	35548.64
696.72	35876.32
696.91	35509.73
697.10	35431.91
697.29	35491.30
697.48	35304.93
697.67	34901.48
697.86	35102.18
698.05	35198.44
698.24	35274.21
698.43	35235.30
698.62	35337.70
698.81	35126.76
699.00	35673.57
699.19	34878.96
699.38	35280.36
699.57	34786.80
699.76	35538.40
699.95	35206.63
700.14	34864.62
700.32	34809.32
700.51	34948.59
700.70	35050.99
700.89	35106.28
701.08	35083.75
701.27	34741.74
701.46	35450.34
701.65	34407.92
701.84	34848.24
702.03	35241.45
702.22	34600.43
702.41	34467.31
702.60	34696.69
702.79	34788.85
702.98	34428.40
703.17	34911.72
703.35	34422.26
703.54	34272.76
703.73	34553.33
703.92	34831.85
704.11	34487.79
704.30	34485.75
704.49	34299.38
704.68	33936.89
704.87	34035.19
705.06	34035.19
705.25	33615.36
705.43	34235.89
705.62	34113.02
705.81	34274.80
706.00	33914.36
706.19	33734.14
706.38	34233.85
706.57	34137.59
706.76	33760.76
706.95	34149.88
707.14	33861.12
707.32	34065.91
707.51	33734.14
707.70	33857.02
707.89	33826.30
708.08	34029.05
708.27	34055.67
708.46	33754.62
708.65	33873.40
708.84	33658.37
709.02	33674.75
709.21	33715.71
709.40	33588.74
709.59	33551.87
709.78	32914.95
709.97	33566.21
710.16	33418.75
710.34	33408.51
710.53	33357.32
710.72	33480.19
710.91	33011.21
711.10	33558.02
711.29	33228.29
711.48	33152.52
711.66	32865.80
711.85	33166.85
712.04	33052.17
712.23	33152.52
712.42	32871.95
712.61	32972.30
712.80	32728.59
712.98	32790.03
713.17	32474.64
713.36	32923.15
713.55	32624.14
713.74	32448.02
713.93	32816.65
714.11	32775.69
714.30	32257.56
714.49	32536.08
714.68	32591.37
714.87	32378.39
715.06	32634.38
715.24	32255.51
715.43	32357.91
715.62	32140.82
715.81	32341.52
716.00	32468.50
716.18	32407.06
716.37	32093.72
716.56	31862.30
716.75	32251.41
716.94	31813.15
717.12	31731.23
717.31	32183.83
717.50	31993.37
717.69	31839.77
717.88	31958.55
718.06	31696.41
718.25	31972.89
718.44	31526.43
718.63	32052.76
718.82	31438.37
719.00	31708.70
719.19	31868.44
719.38	31831.58
719.57	31401.50
719.76	31227.43
719.94	31307.30
720.13	31381.03
720.32	31395.36
720.51	31464.99
720.69	31098.41
720.88	31008.29
721.07	31604.25
721.26	30727.72
721.44	30760.49
721.63	30826.03
721.82	30756.39
722.01	30862.89
722.20	30823.98
722.38	31022.63
722.57	30754.35
722.76	30668.33
722.95	30869.03
723.13	30404.14
723.32	30445.10
723.51	30557.74
723.70	30377.52
723.88	30504.49
724.07	30326.32
724.26	30428.72
724.44	30158.39
724.63	30301.75
724.82	30211.64
725.01	30295.60
725.19	29986.36
725.38	30074.42
725.57	29892.15
725.76	29914.68
725.94	29939.26
726.13	29945.40
726.32	29701.69
726.51	29636.16
726.69	29978.17
726.88	30068.28
727.07	29986.36
727.25	29847.10
727.44	29836.86
727.63	29941.30
727.82	29900.34
728.00	30029.37
728.19	29961.78
728.38	30088.76
728.56	29691.45
728.75	29539.90
728.94	29720.12
729.12	29775.42
729.31	29683.26
729.50	29732.41
729.69	29460.03
729.87	29627.96
730.06	29496.89
730.25	29607.48
730.43	29787.71
730.62	29318.72
730.81	29529.66
730.99	29560.38
731.18	29457.98
731.37	29675.07
731.55	29662.78
731.74	29494.85
731.93	29904.44
732.11	29189.70
732.30	29156.93
732.49	29537.85
732.67	29156.93
732.86	29410.88
733.05	29335.10
733.23	28923.46
733.42	29396.54
733.61	28943.94
733.79	29101.64
733.98	29318.72
734.17	29107.78
734.35	28954.18
734.54	29064.77
734.73	28960.33
734.91	29138.50
735.10	28986.95
735.29	29011.53
735.47	28434.00
735.66	28798.54
735.84	28659.27
736.03	28757.58
736.22	28972.61
736.40	28741.19
736.59	28843.59
736.78	28503.63
736.96	28733.00
737.15	28649.03
737.33	28622.41
737.52	28339.79
737.71	28505.68
737.89	28542.54
738.08	28255.82
738.27	28579.40
738.45	28368.46
738.64	28741.19
738.82	28526.16
739.01	28298.83
739.20	28427.85
739.38	28612.17
739.57	28274.26
739.75	28214.87
739.94	27971.16
740.13	28284.50
740.31	28165.71
740.50	28204.63
740.68	28102.23
740.87	28188.24
741.06	28274.26
741.24	28395.09
741.43	28022.36
741.61	28161.62
741.80	27584.09
741.99	27928.15
742.17	27856.47
742.36	28210.77
742.54	27717.21
742.73	27792.98
742.91	28294.74
743.10	27772.50
743.29	27735.64
743.47	27952.73
743.66	27420.25
743.84	27817.56
744.03	27659.87
744.21	27645.53
744.40	27866.71
744.59	27623.00
744.77	27324.00
744.96	27663.96
745.14	27389.53
745.33	27719.26
745.51	27348.57
745.70	27344.48
745.88	27334.24
746.07	27076.19
746.26	27283.04
746.44	27043.43
746.63	27360.86
746.81	27590.24
747.00	27008.61
747.18	27139.68
747.37	27199.07
747.55	27074.15
747.74	27354.72
747.92	27111.01
748.11	26891.88
748.29	26981.99
748.48	27002.47
748.66	26662.51
748.85	26945.12
749.03	26588.78
749.22	26869.35
749.41	26859.11
749.59	27033.19
749.78	26662.51
749.96	26680.94
750.15	26838.63
750.33	26619.50
750.52	26926.69
750.70	26365.55
750.89	26322.54
751.07	26338.93
751.26	26502.76
751.44	26519.15
751.63	26386.03
751.81	26510.96
752.00	26254.96
752.18	26592.87
752.37	26652.27
752.55	26572.39
752.74	26388.08
752.92	26201.71
753.10	26197.62
753.29	26254.96
753.47	26144.37
753.66	26162.80
753.84	26242.67
754.03	26095.22
754.21	25966.20
754.40	26015.35
754.58	26193.52
754.77	25755.26
754.95	25714.30
755.14	26072.69
755.32	25968.24
755.51	25724.54
755.69	26003.06
755.88	25681.53
756.06	25919.09
756.24	25564.79
756.43	25865.85
756.61	25773.69
756.80	25738.87
756.98	25448.06
757.17	25736.82
757.35	25742.97
757.54	25560.70
757.72	25486.97
757.90	25769.59
758.09	25482.88
758.27	25480.83
758.46	25517.69
758.64	25740.92
758.83	25661.05
759.01	25656.95
759.19	25519.74
759.38	25366.14
759.56	25224.83
759.75	25149.06
759.93	25312.89
760.12	25329.28
760.30	25255.55
760.48	25407.10
760.67	25151.10
760.85	25273.98
761.04	25366.14
761.22	25419.39
761.40	25218.69
761.59	25245.31
761.77	24874.63
761.96	24921.73
762.14	25056.90
762.32	24993.41
762.51	24862.34
762.69	24684.17
762.88	25058.95
763.06	24743.56
763.24	24848.00
763.43	25046.66
763.61	24950.40
763.80	25116.29
763.98	24708.74
764.16	24909.44
764.35	24729.22
764.53	24299.15
764.72	24596.10
764.90	24489.61
765.08	24702.60
765.27	24776.33
765.45	24532.62
765.63	24331.92
765.82	24438.41
766.00	24028.82
766.18	24235.66
766.37	24473.23
766.55	24450.70
766.74	24555.15
766.92	24235.66
767.10	24088.21
767.29	24356.49
767.47	24077.97
767.65	24413.84
767.84	24014.48
768.02	24147.60
768.20	23916.18
768.39	23805.59
768.57	24100.50
768.75	24282.77
768.94	23932.56
769.12	23824.02
769.30	24045.20
769.49	23920.28
769.67	23830.16
769.85	23654.04
770.04	23912.08
770.22	23758.49
770.40	23428.76
770.59	23455.39
770.77	23961.23
770.95	23809.68
771.14	23557.78
771.32	23463.58
771.50	23357.08
771.69	23324.32
771.87	23488.15
772.05	23467.67
772.24	23471.77
772.42	23156.38
772.60	23140.00
772.78	23010.98
772.97	23185.05
773.15	23217.82
773.33	23189.15
773.52	23234.21
773.70	23418.52
773.88	23400.09
774.07	22873.76
774.25	23121.57
774.43	23266.97
774.61	23238.30
774.80	23135.90
774.98	23256.73
775.16	23203.49
775.34	23176.86
775.53	22990.50
775.71	23359.13
775.89	23070.37
776.08	23152.29
776.26	23127.71
776.44	23205.53
776.62	22765.22
776.81	23246.49
776.99	23119.52
777.17	23088.80
777.35	23015.07
777.54	23316.12
777.72	23324.32
777.90	23027.36
778.08	22982.31
778.27	23074.46
778.45	23213.73
778.63	23094.94
778.81	22611.62
779.00	23416.47
779.18	22900.39
779.36	23056.03
779.54	23180.96
779.73	23170.72
779.91	23400.09
780.09	23314.08
780.27	23170.72
780.46	23365.28
780.64	23174.81
780.82	23168.67
781.00	22996.64
781.19	23246.49
781.37	23740.05
781.55	23197.34
781.73	23172.77
781.91	23150.24
782.10	23027.36
782.28	23439.00
782.46	23252.64
782.64	23299.74
782.82	23328.41
783.01	23090.85
783.19	23213.73
783.37	23361.18
783.55	23402.14
783.74	23436.95
783.92	23076.51
784.10	23111.33
784.28	23148.19
784.46	23105.18
784.64	23336.60
784.83	23273.12
785.01	23168.67
785.19	23088.80
785.37	23094.94
785.55	23410.33
785.74	22781.60
785.92	23219.87
786.10	23439.00
786.28	22892.19
786.46	23086.75
786.64	22574.76
786.83	22998.69
787.01	23373.47
787.19	22920.87
787.37	22906.53
787.55	23062.18
787.74	22720.17
787.92	22939.30
788.10	22804.13
788.28	22642.34
788.46	22892.19
788.64	22628.01
788.82	22904.48
789.01	22486.70
789.19	22875.81
789.37	22541.99
789.55	22656.68
789.73	22628.01
789.91	22509.22
790.09	22537.90
790.28	22513.32
790.46	22111.92
790.64	22548.14
790.82	22449.83
791.00	22279.85
791.18	22390.44
791.36	22007.47
791.55	22163.12
791.73	22005.42
791.91	21915.31
792.09	21919.41
792.27	22116.01
792.45	22120.11
792.63	22183.60
792.81	21907.12
793.00	21767.86
793.18	21903.03
793.36	21780.15
793.54	21520.06
793.72	21634.74
793.90	21757.62
794.08	21495.48
794.26	21481.14
794.44	21431.99
794.62	21380.79
794.81	21679.80
794.99	21380.79
795.17	21178.04
795.35	21405.37
795.53	21497.53
795.71	21501.62
795.89	21143.23
796.07	21192.38
796.25	21075.65
796.43	21026.50
796.61	20985.54
796.80	20719.30
796.98	20840.13
797.16	20805.31
797.34	20844.23
797.52	20674.24
797.70	20956.86
797.88	20729.54
798.06	20469.45
798.24	20940.48
798.42	20707.01
798.60	20438.73
798.78	20682.44
798.96	20422.34
799.14	20356.81
799.32	20455.11
799.51	20104.91
799.69	20348.62
799.87	20385.48
800.05	20053.71
800.23	20203.21
800.41	19930.83
800.59	20010.70
800.77	19912.40
800.95	19726.04
801.13	20147.92
801.31	19943.12
801.49	19936.98
801.67	19785.43
801.85	19904.21
802.03	19257.05
802.21	19345.11
802.39	19707.60
802.57	19547.86
802.75	19388.12
802.93	19625.68
803.11	19646.16
803.29	19310.30
803.47	19193.56
803.65	19531.48
803.83	19175.13
804.01	19007.20
804.19	19097.31
804.37	19013.34
804.55	18833.12
804.73	19199.71
804.91	19111.64
805.09	19056.35
805.27	18917.09
805.45	19181.28
805.63	18826.98
805.81	19025.63
805.99	18659.04
806.17	18835.17
806.35	19113.69
806.53	18618.08
806.71	18745.06
806.89	18706.15
807.07	18536.17
807.25	18534.12
807.43	18345.70
807.61	18542.31
807.79	18419.43
807.97	18278.12
808.15	18454.25
808.33	18392.81
808.51	18218.73
808.69	18095.85
808.87	18089.71
809.05	18048.75
809.23	18167.53
809.41	17942.25
809.59	17905.39
809.77	18048.75
809.95	17649.39
810.13	17735.41
810.31	17663.73
810.49	18018.03
810.67	17819.38
810.84	17708.79
811.02	17833.71
811.20	17592.05
811.38	17524.47
811.56	17354.49
811.74	17614.58
811.92	17192.70
812.10	17499.89
812.28	17557.24
812.46	17387.25
812.64	17411.83
812.82	17225.47
813.00	17143.55
813.18	17334.01
813.36	17065.72
813.53	17110.78
813.71	17100.54
813.89	16924.41
814.07	17096.44
814.25	17002.24
814.43	16762.62
814.61	16746.24
814.79	16891.65
814.97	17051.39
815.15	16848.64
815.33	16643.84
815.50	16631.55
815.68	16768.77
815.86	16604.93
816.04	16686.85
816.22	16697.09
816.40	16572.16
816.58	16654.08
816.76	16514.82
816.94	16437.00
817.11	16365.32
817.29	16508.68
817.47	16404.23
817.65	16477.96
817.83	16463.62
818.01	16000.78
818.19	16076.55
818.37	16224.01
818.54	15998.73
818.72	15673.10
818.90	16293.64
819.08	16066.31
819.26	16090.89
819.44	16197.38
819.62	16142.09
819.80	15904.53
819.97	15943.44
820.15	15922.96
820.33	16000.78
820.51	15834.89
820.69	15685.39
820.87	15802.13
821.05	15824.65
821.22	15777.55
821.40	15951.63
821.58	15716.11
821.76	15587.09
821.94	15636.24
822.12	15656.72
822.29	15529.75
822.47	15597.33
822.65	15496.98
822.83	15664.91
823.01	15333.14
823.19	15390.49
823.36	15472.40
823.54	15511.32
823.72	15341.33
823.90	15453.97
824.08	15431.44
824.25	15443.73
824.43	15224.60
824.61	15294.23
824.79	15189.78
824.97	15073.05
825.15	15382.29
825.32	15275.80
825.50	15138.58
825.68	15114.01
825.86	15337.24
826.04	15111.96
826.21	15077.15
826.39	14837.53
826.57	14980.89
826.75	14685.98
826.93	15036.19
827.10	14778.14
827.28	14702.37
827.46	15003.42
827.64	14901.02
827.81	14833.44
827.99	14907.16
828.17	14939.93
828.35	14743.33
828.53	14806.81
828.70	14722.85
828.88	14626.59
829.06	14772.00
829.24	14583.59
829.41	14577.44
829.59	14671.65
829.77	14554.91
829.95	14645.02
830.12	14423.84
830.30	14579.49
830.48	14417.70
830.66	14354.21
830.84	14575.39
831.01	14346.02
831.19	14446.37
831.37	14116.65
831.55	14307.11
831.72	14413.60
831.90	14235.43
832.08	14374.69
832.25	14264.10
832.43	14202.66
832.61	14061.35
832.79	14001.96
832.96	14049.07
833.14	14108.46
833.32	14196.52
833.50	14049.07
833.67	13997.87
833.85	13840.17
834.03	14028.59
834.20	14044.97
834.38	14071.59
834.56	13879.08
834.74	13743.92
834.91	13928.24
835.09	14028.59
835.27	13821.74
835.44	13678.38
835.62	13739.82
835.80	13684.53
835.98	13719.34
836.15	13774.64
836.33	13737.77
836.51	13797.17
836.68	13596.46
836.86	13340.47
837.04	13649.71
837.21	13711.15
837.39	13424.44
837.57	13707.05
837.75	13657.90
837.92	13227.83
838.10	13567.79
838.28	13369.14
838.45	13502.26
838.63	13483.83
838.81	13410.10
838.98	13440.82
839.16	13311.80
839.34	13393.72
839.51	13395.76
839.69	13274.93
839.87	13156.15
840.04	13379.38
840.22	13236.02
840.40	13373.24
840.57	13160.25
840.75	13229.88
840.93	13016.89
841.10	13102.90
841.28	13373.24
841.46	13182.77
841.63	13227.83
841.81	13027.13
841.98	12982.07
842.16	13119.29
842.34	12967.74
842.51	12953.40
842.69	12934.97
842.87	12769.09
843.04	13150.01
843.22	12924.73
843.40	12906.30
843.57	12863.29
843.75	13092.66
843.92	13162.30
844.10	12836.67
844.28	12701.50
844.45	12945.21
844.63	12703.55
844.81	12793.66
844.98	12773.18
845.16	12719.93
845.33	12693.31
845.51	12586.82
845.69	12672.83
845.86	12580.67
846.04	12390.21
846.21	12609.34
846.39	12609.34
846.57	12502.85
846.74	12367.68
846.92	12617.54
847.09	12539.71
847.27	12451.65
847.45	12619.58
847.62	12533.57
847.80	12398.40
847.97	12384.07
848.15	12406.59
848.32	12318.53
848.50	12480.32
848.68	12257.09
848.85	12201.80
849.03	12156.74
849.20	12238.66
849.38	12236.61
849.56	12152.65
849.73	12244.81
849.91	12183.37
850.08	12242.76
850.26	12001.10
850.43	12304.20
850.61	12255.04
850.78	11902.79
850.96	12179.27
851.14	12130.12
851.31	12029.77
851.49	11988.81
851.66	11808.59
851.84	12068.68
852.01	11970.38
852.19	11800.40
852.36	11886.41
852.54	12013.38
852.71	11761.48
852.89	11781.96
853.07	11945.80
853.24	11800.40
853.42	11804.49
853.59	11675.47
853.77	11747.15
853.94	11769.68
854.12	11796.30
854.29	11505.49
854.47	11814.73
854.64	11599.70
854.82	11663.18
854.99	11734.86
855.17	11841.36
855.34	11515.73
855.52	11589.46
855.69	11540.30
855.87	11521.87
856.04	11517.78
856.22	11485.01
856.39	11349.84
856.57	11487.06
856.74	11417.43
856.92	11634.51
857.09	11380.56
857.27	11532.11
857.44	11509.58
857.62	11564.88
857.79	11321.17
857.97	11319.12
858.14	11384.66
858.32	11478.86
858.49	11116.37
858.67	11355.99
858.84	11241.30
859.02	11312.98
859.19	11202.39
859.37	11071.32
859.54	10887.00
859.72	11007.83
859.89	11261.78
860.06	11087.70
860.24	10876.76
860.41	11173.72
860.59	10835.80
860.76	11138.90
860.94	10796.89
861.11	10889.05
861.29	10870.62
861.46	10811.23
861.64	10856.28
861.81	10764.12
861.98	10821.47
862.16	10782.56
862.33	10733.40
862.51	10866.52
862.68	10938.20
862.86	10733.40
863.03	10626.91
863.21	10805.08
863.38	10700.64
863.55	10557.28
863.73	10768.22
863.90	10704.73
864.08	10686.30
864.25	10659.68
864.43	10604.38
864.60	10579.81
864.77	10530.66
864.95	10581.85
865.12	10342.24
865.30	10448.74
865.47	10284.90
865.64	10647.39
865.82	10495.84
865.99	10458.98
866.17	10506.08
866.34	10538.85
866.51	10497.89
866.69	10479.46
866.86	10346.34
867.04	10364.77
867.21	10391.39
867.38	10358.63
867.56	10432.35
867.73	10180.45
867.91	10284.90
868.08	10377.06
868.25	10233.70
868.43	10112.87
868.60	10248.04
868.78	10121.06
868.95	10110.82
869.12	10155.88
869.30	10039.14
869.47	10020.71
869.64	10168.16
869.82	10022.76
869.99	9934.70
870.16	10168.16
870.34	10008.42
870.51	10037.09
870.69	9971.56
870.86	9961.32
871.03	9850.73
871.21	9738.09
871.38	10016.62
871.55	9762.67
871.73	9832.30
871.90	9895.78
872.07	9647.98
872.25	9656.17
872.42	9768.81
872.59	9625.45
872.77	9576.30
872.94	9398.13
873.11	9664.36
873.29	9594.73
873.46	9498.48
873.63	9570.16
873.81	9641.84
873.98	9629.55
874.15	9545.58
874.33	9629.55
874.50	9504.62
874.67	9516.91
874.85	9424.75
875.02	9246.58
875.19	9230.20
875.37	9424.75
875.54	9273.20
875.71	9385.84
875.88	9238.39
876.06	9291.63
876.23	9209.72
876.40	9174.90
876.58	9267.06
876.75	9158.52
876.92	9326.45
877.10	9244.53
877.27	9185.14
877.44	9131.89
877.61	9041.78
877.79	9146.23
877.96	9095.03
878.13	9019.25
878.31	9011.06
878.48	9004.92
878.65	8888.18
878.82	8945.53
879.00	8810.36
879.17	8900.47
879.34	8916.86
879.51	8818.55
879.69	8828.79
879.86	8865.66
880.03	8961.91
880.21	8646.52
880.38	8900.47
880.55	8873.85
880.72	8861.56
880.90	8718.20
881.07	8609.66
881.24	8716.16
881.41	8755.07
881.59	8845.18
881.76	8693.63
881.93	8624.00
882.10	8595.32
882.28	8523.65
882.45	8705.92
882.62	8677.24
882.79	8779.64
882.96	8548.22
883.14	8734.59
883.31	8439.68
883.48	8587.13
883.65	8619.90
883.83	8636.28
884.00	8537.98
884.17	8599.42
884.34	8517.50
884.51	8556.41
884.69	8433.54
884.86	8535.93
885.03	8605.56
885.20	8593.28
885.38	8331.14
885.55	8431.49
885.72	8478.59
885.89	8368.00
886.06	8480.64
886.24	8654.72
886.41	8478.59
886.58	8529.79
886.75	8396.67
886.92	8318.85
887.10	8492.93
887.27	8443.78
887.44	8269.70
887.61	8357.76
887.78	8419.20
887.95	8271.75
888.13	8296.32
888.30	8259.46
888.47	8214.40
888.64	8341.38
888.81	8372.10
888.99	8259.46
889.16	8384.38
889.33	8038.28
889.50	8030.09
889.67	8161.16
889.84	7917.45
890.01	8075.14
890.19	8150.92
890.36	8183.68
890.53	8169.35
890.70	8175.49
890.87	8103.81
891.04	8122.24
891.22	8017.80
891.39	8089.48
891.56	7927.69
891.73	7956.36
891.90	7980.93
892.07	7880.58
892.24	8019.85
892.42	7821.19
892.59	7958.41
892.76	8019.85
892.93	7917.45
893.10	7929.74
893.27	7841.67
893.44	7899.02
893.61	7600.01
893.79	7952.26
893.96	7780.23
894.13	7761.80
894.30	7874.44
894.47	7872.39
894.64	7796.62
894.81	7845.77
894.98	7970.69
895.15	7835.53
895.33	7663.50
895.50	7677.83
895.67	7767.95
895.84	7751.56
896.01	7694.22
896.18	7542.67
896.35	7843.72
896.52	7661.45
896.69	7778.19
896.86	7757.71
897.04	7810.95
897.21	7827.34
897.38	7624.59
897.55	7612.30
897.72	7675.79
897.89	7583.63
898.06	7583.63
898.23	7673.74
898.40	7595.92
898.57	7579.53
898.74	7595.92
898.91	7616.40
899.08	7591.82
899.26	7686.03
899.43	7608.20
899.60	7690.12
899.77	7557.00
899.94	7536.52
900.11	7554.96
900.28	7511.95
900.45	7436.17
900.62	7665.55
900.79	7763.85
900.96	7552.91
901.13	7673.74
901.30	7530.38
901.47	7387.02
901.64	7501.71
901.81	7597.96
901.98	7456.65
902.15	7638.92
902.32	7446.41
902.49	7423.89
902.66	7497.61
902.83	7350.16
903.01	7473.04
903.18	7430.03
903.35	7387.02
903.52	7425.93
903.69	7606.16
903.86	7548.81
904.03	7557.00
904.20	7749.51
904.37	7464.85
904.54	7325.58
904.71	7460.75
904.88	7450.51
905.05	7329.68
905.22	7303.06
905.39	7497.61
905.56	7372.69
905.73	7360.40
905.90	7401.36
906.07	7387.02
906.24	7380.88
906.41	7352.21
906.58	7344.02
906.75	7452.56
906.92	7317.39
907.09	7219.09
907.26	7411.60
907.43	7462.80
907.60	7358.35
907.77	7358.35
907.93	7290.77
908.10	7341.97
908.27	7536.52
908.44	7221.14
908.61	7139.22
908.78	7200.66
908.95	7333.78
909.12	7258.00
909.29	7145.36
909.46	7395.22
909.63	7276.43
909.80	7403.41
909.97	7266.19
910.14	7393.17
910.31	7100.31
910.48	7131.03
910.65	7206.80
910.82	7188.37
910.99	7159.70
911.16	7079.83
911.33	7188.37
911.50	7217.04
911.66	7202.71
911.83	7198.61
912.00	7045.01
912.17	7143.32
912.34	6979.48
912.51	7034.77
912.68	7120.79
912.85	7063.44
913.02	7002.01
913.19	7061.40
913.36	6999.96
913.53	7073.68
913.70	6999.96
913.86	6877.08
914.03	7042.96
914.20	7110.55
914.37	6850.46
914.54	6840.22
914.71	6985.62
914.88	6903.70
915.05	6827.93
915.22	6987.67
915.39	6827.93
915.55	6911.89
915.72	6961.05
915.89	6612.89
916.06	6664.09
916.23	6766.49
916.40	6707.10
916.57	6821.78
916.74	6817.69
916.91	6643.61
917.07	6584.22
917.24	6717.34
917.41	6520.73
917.58	6758.30
917.75	6653.85
917.92	6557.60
918.09	6600.60
918.26	6602.65
918.42	6492.06
918.59	6547.36
918.76	6537.12
918.93	6360.99
919.10	6502.30
919.27	6424.48
919.44	6541.21
919.60	6363.04
919.77	6401.95
919.94	6289.31
920.11	6412.19
920.28	6416.29
920.45	6285.22
920.61	6090.66
920.78	6268.83
920.95	6201.25
921.12	6197.15
921.29	6256.54
921.46	6168.48
921.62	6094.76
921.79	6168.48
921.96	6096.80
922.13	6086.56
922.30	6164.39
922.47	5986.21
922.63	5971.88
922.80	6023.08
922.97	5986.21
923.14	5988.26
923.31	6094.76
923.47	5967.78
923.64	6039.46
923.81	5842.85
923.98	5836.71
924.15	5836.71
924.32	5812.14
924.48	5771.18
924.65	5769.13
924.82	5758.89
924.99	5746.60
925.15	5846.95
925.32	5795.75
925.49	5695.40
925.66	5623.72
925.83	5582.76
925.99	5529.52
926.16	5631.91
926.33	5707.69
926.50	5533.61
926.67	5463.98
926.83	5578.67
927.00	5590.95
927.17	5506.99
927.34	5658.54
927.50	5509.04
927.67	5498.80
927.84	5517.23
928.01	5494.70
928.17	5351.34
928.34	5365.68
928.51	5476.27
928.68	5392.30
928.84	5332.91
929.01	5087.15
929.18	5306.29
929.35	5218.22
929.51	5341.10
929.68	5267.38
929.85	5300.14
930.02	5154.74
930.18	5207.98
930.35	5078.96
930.52	5124.02
930.69	5195.70
930.85	5134.26
931.02	5140.40
931.19	5087.15
931.36	4951.99
931.52	4913.08
931.69	4929.46
931.86	4825.01
932.02	4831.16
932.19	4974.52
932.36	4880.31
932.53	4878.26
932.69	4890.55
932.86	4900.79
933.03	4829.11
933.19	4798.39
933.36	4822.97
933.53	4693.94
933.70	4773.82
933.86	4671.42
934.03	4702.14
934.20	4677.56
934.36	4632.51
934.53	4464.57
934.70	4526.01
934.86	4511.68
935.03	4671.42
935.20	4519.87
935.36	4513.72
935.53	4380.61
935.70	4503.48
935.86	4380.61
936.03	4251.58
936.20	4251.58
936.36	4245.44
936.53	4247.49
936.70	4218.82
936.86	4210.62
937.03	4149.18
937.20	4069.31
937.36	4071.36
937.53	4075.46
937.70	3923.91
937.86	3981.25
938.03	4020.16
938.20	3962.82
938.36	3817.41
938.53	3921.86
938.70	3858.37
938.86	3772.36
939.03	3784.65
939.20	3704.78
939.36	3649.48
939.53	3647.43
939.70	3751.88
939.86	3557.32
940.03	3522.51
940.19	3444.68
940.36	3526.60
940.53	3516.36
940.69	3454.92
940.86	3422.16
941.03	3424.20
941.19	3352.52
941.36	3391.44
941.52	3301.33
941.69	3266.51
941.86	3155.92
942.02	3198.93
942.19	3278.80
942.35	3223.50
942.52	3182.54
942.69	3147.73
942.85	3131.34
943.02	3143.63
943.18	3137.49
943.35	3063.76
943.52	3149.78
943.68	3000.27
943.85	3053.52
944.01	3063.76
944.18	3006.42
944.35	2940.88
944.51	2947.03
944.68	2877.40
944.84	2963.41
945.01	2916.31
945.17	2873.30
945.34	3006.42
945.51	2899.92
945.67	2961.36
945.84	2832.34
946.00	2889.68
946.17	2904.02
946.33	2803.67
946.50	2887.64
946.67	2928.60
946.83	2768.85
947.00	2854.87
947.16	2760.66
947.33	2852.82
947.49	2811.86
947.66	2832.34
947.82	2801.62
947.99	2811.86
948.16	2770.90
948.32	2818.00
948.49	2803.67
948.65	2822.10
948.82	2772.95
948.98	2768.85
949.15	2748.37
949.31	2826.20
949.48	2863.06
949.64	2809.81
949.81	2746.33
949.97	2748.37
950.14	2666.46
950.30	2783.19
950.47	2871.25
950.63	2758.61
950.80	2772.95
950.96	2705.37
951.13	2807.77
951.30	2746.33
951.46	2746.33
951.63	2756.57
951.79	2897.88
951.96	2727.89
952.12	2791.38
952.29	2768.85
952.45	2828.24
952.62	2725.85
952.78	2756.57
952.94	2762.71
953.11	2723.80
953.27	2650.07
953.44	2674.65
953.60	2658.26
953.77	2852.82
953.93	2770.90
954.10	2744.28
954.26	2762.71
954.43	2658.26
954.59	2775.00
954.76	2664.41
954.92	2758.61
955.09	2701.27
955.25	2666.46
955.42	2656.22
955.58	2742.23
955.75	2709.46
955.91	2668.50
956.07	2691.03
956.24	2748.37
956.40	2703.32
956.57	2715.61
956.73	2736.09
956.90	2715.61
957.06	2668.50
957.23	2658.26
957.39	2598.87
957.56	2688.98
957.72	2576.34
957.88	2680.79
958.05	2652.12
958.21	2662.36
958.38	2775.00
958.54	2582.49
958.71	2648.02
958.87	2545.63
959.03	2621.40
959.20	2715.61
959.36	2684.89
959.53	2641.88
959.69	2666.46
959.85	2639.83
960.02	2613.21
960.18	2541.53
960.35	2580.44
960.51	2617.30
960.68	2564.06
960.84	2686.94
961.00	2605.02
961.17	2521.05
961.33	2611.16
961.50	2611.16
961.66	2621.40
961.82	2592.73
961.99	2590.68
962.15	2498.52
962.31	2609.11
962.48	2523.10
962.64	2656.22
962.81	2625.50
962.97	2602.97
963.13	2637.78
963.30	2586.58
963.46	2525.15
963.62	2568.15
963.79	2598.87
963.95	2625.50
964.12	2562.01
964.28	2582.49
964.44	2498.52
964.61	2629.59
964.77	2527.19
964.93	2621.40
965.10	2525.15
965.26	2545.63
965.42	2545.63
965.59	2519.00
965.75	2514.91
965.92	2568.15
966.08	2541.53
966.24	2441.18
966.41	2498.52
966.57	2572.25
966.73	2418.65
966.90	2506.71
967.06	2482.14
967.22	2490.33
967.39	2475.99
967.55	2422.75
967.71	2422.75
967.88	2486.23
968.04	2432.99
968.20	2428.89
968.37	2500.57
968.53	2486.23
968.69	2496.47
968.85	2498.52
969.02	2453.47
969.18	2453.47
969.34	2463.71
969.51	2523.10
969.67	2523.10
969.83	2482.14
970.00	2562.01
970.16	2547.67
970.32	2443.23
970.48	2410.46
970.65	2392.03
970.81	2519.00
970.97	2461.66
971.14	2510.81
971.30	2426.84
971.46	2412.51
971.63	2480.09
971.79	2473.95
971.95	2453.47
972.11	2447.32
972.28	2381.79
972.44	2303.96
972.60	2365.40
972.76	2428.89
972.93	2375.64
973.09	2406.36
973.25	2359.26
973.42	2332.64
973.58	2449.37
973.74	2488.28
973.90	2392.03
974.07	2295.77
974.23	2422.75
974.39	2336.73
974.55	2330.59
974.72	2406.36
974.88	2330.59
975.04	2373.60
975.20	2371.55
975.37	2418.65
975.53	2330.59
975.69	2349.02
975.85	2324.44
976.01	2271.20
976.18	2312.16
976.34	2355.16
976.50	2363.36
976.66	2359.26
976.83	2392.03
976.99	2363.36
977.15	2195.42
977.31	2234.33
977.47	2361.31
977.64	2338.78
977.80	2400.22
977.96	2338.78
978.12	2303.96
978.29	2330.59
978.45	2324.44
978.61	2271.20
978.77	2291.68
978.93	2258.91
979.10	2365.40
979.26	2267.10
979.42	2336.73
979.58	2326.49
979.74	2306.01
979.91	2240.48
980.07	2213.85
980.23	2244.57
980.39	2265.05
980.55	2265.05
980.71	2228.19
980.88	2277.34
981.04	2256.86
981.20	2275.29
981.36	2291.68
981.52	2349.02
981.68	2291.68
981.85	2242.53
982.01	2238.43
982.17	2234.33
982.33	2189.28
982.49	2312.16
982.65	2146.27
982.82	2220.00
982.98	2353.12
983.14	2150.37
983.30	2152.42
983.46	2213.85
983.62	2328.54
983.79	2199.52
983.95	2242.53
984.11	2152.42
984.27	2217.95
984.43	2228.19
984.59	2170.85
984.75	2242.53
984.91	2166.75
985.08	2203.61
985.24	2258.91
985.40	2123.74
985.56	2265.05
985.72	2193.37
985.88	2181.09
986.04	2263.01
986.20	2195.42
986.37	2211.81
986.53	2172.89
986.69	2195.42
986.85	2154.46
987.01	2205.66
987.17	2119.65
987.33	2211.81
987.49	2152.42
987.65	2203.61
987.82	2121.70
987.98	2117.60
988.14	2179.04
988.30	2142.18
988.46	2154.46
988.62	2131.94
988.78	2136.03
988.94	2127.84
989.10	2123.74
989.26	2054.11
989.42	2121.70
989.59	2105.31
989.75	2125.79
989.91	2062.30
990.07	2107.36
990.23	2136.03
990.39	2084.83
990.55	2156.51
990.71	2074.59
990.87	2078.69
991.03	2017.25
991.19	1986.53
991.35	2115.55
991.51	2090.98
991.67	2138.08
991.83	2191.33
992.00	2101.22
992.16	2113.50
992.32	1982.43
992.48	2156.51
992.64	2029.54
992.80	2031.58
992.96	2043.87
993.12	2107.36
993.28	2127.84
993.44	2109.41
993.60	2082.78
993.76	2066.40
993.92	2162.66
994.08	2105.31
994.24	1982.43
994.40	2088.93
994.56	2164.70
994.72	2086.88
994.88	2000.87
995.04	2099.17
995.20	2088.93
995.36	1990.63
995.52	2000.87
995.68	2070.50
995.84	2037.73
996.00	2060.26
996.16	2078.69
996.32	2043.87
996.48	2025.44
996.64	2117.60
996.80	2082.78
996.96	2029.54
997.12	2101.22
997.28	2052.06
997.44	1961.95
997.60	2082.78
997.76	2047.97
997.92	2041.82
998.08	1968.10
998.24	1998.82
998.40	2047.97
998.56	2076.64
998.72	1988.58
998.88	1970.15
999.04	1931.23
999.20	1949.67
999.36	2101.22
999.52	2095.07
999.68	1976.29
999.84	2019.30
1000.00	1990.63
1000.16	1986.53
1000.32	1988.58
1000.48	2072.54
1000.64	2007.01
1000.80	1966.05
1000.95	1900.52
1001.11	1886.18
1001.27	1920.99
1001.43	1984.48
1001.59	1980.39
1001.75	1929.19
1001.91	1990.63
1002.07	2000.87
1002.23	1966.05
1002.39	1972.19
1002.55	1894.37
1002.71	1892.32
1002.87	1943.52
1003.03	1923.04
1003.19	1904.61
1003.34	1935.33
1003.50	1937.38
1003.66	1923.04
1003.82	1798.12
1003.98	1980.39
1004.14	1984.48
1004.30	1945.57
1004.46	1824.74
1004.62	1906.66
1004.78	1937.38
1004.94	1914.85
1005.09	1906.66
1005.25	1953.76
1005.41	1912.80
1005.57	1953.76
1005.73	1859.56
1005.89	1902.56
1006.05	1882.08
1006.21	1931.23
1006.37	1955.81
1006.52	1906.66
1006.68	1890.28
1006.84	1994.72
1007.00	1904.61
1007.16	1939.43
1007.32	1888.23
1007.48	1949.67
1007.64	1916.90
1007.79	1882.08
1007.95	1906.66
1008.11	1892.32
1008.27	1908.71
1008.43	1873.89
1008.59	1847.27
1008.75	1869.80
1008.91	1931.23
1009.06	1830.88
1009.22	1882.08
1009.38	1884.13
1009.54	1877.99
1009.70	1804.26
1009.86	1865.70
1010.01	1947.62
1010.17	1822.69
1010.33	1851.36
1010.49	1851.36
1010.65	1800.16
1010.81	1800.16
1010.96	1789.92
1011.12	1830.88
1011.28	1812.45
1011.44	1859.56
1011.60	1771.49
1011.76	1851.36
1011.91	1834.98
1012.07	1892.32
1012.23	1794.02
1012.39	1789.92
1012.55	1863.65
1012.71	1863.65
1012.86	1787.88
1013.02	1865.70
1013.18	1773.54
1013.34	1810.40
1013.50	1802.21
1013.65	1890.28
1013.81	1802.21
1013.97	1779.68
1014.13	1826.79
1014.29	1853.41
1014.44	1859.56
1014.60	1855.46
1014.76	1796.07
1014.92	1877.99
1015.07	1742.82
1015.23	1794.02
1015.39	1818.60
1015.55	1800.16
1015.71	1806.31
1015.86	1822.69
1016.02	1814.50
1016.18	1806.31
1016.34	1794.02
1016.49	1710.05
1016.65	1839.08
1016.81	1767.40
1016.97	1775.59
1017.12	1796.07
1017.28	1716.20
1017.44	1767.40
1017.60	1730.53
1017.75	1818.60
1017.91	1777.64
1018.07	1802.21
1018.23	1785.83
1018.38	1765.35
1018.54	1820.64
1018.70	1800.16
1018.86	1755.11
1019.01	1720.29
1019.17	1779.68
1019.33	1849.32
1019.49	1800.16
1019.64	1751.01
1019.80	1808.36
1019.96	1832.93
1020.12	1753.06
1020.27	1716.20
1020.43	1701.86
1020.59	1824.74
1020.74	1798.12
1020.90	1744.87
1021.06	1742.82
1021.22	1714.15
1021.37	1753.06
1021.53	1693.67
1021.69	1779.68
1021.84	1714.15
1022.00	1699.81
1022.16	1759.21
1022.31	1781.73
1022.47	1714.15
1022.63	1675.24
1022.79	1689.57
1022.94	1738.73
1023.10	1751.01
1023.26	1650.66
1023.41	1736.68
1023.57	1689.57
1023.73	1789.92
1023.88	1722.34
1024.04	1773.54
1024.20	1677.29
1024.35	1761.25
1024.51	1736.68
1024.67	1646.57
1024.82	1734.63
1024.98	1693.67
1025.14	1699.81
1025.29	1751.01
1025.45	1777.64
1025.61	1687.53
1025.76	1648.61
1025.92	1748.97
1026.08	1714.15
1026.23	1722.34
1026.39	1785.83
1026.55	1675.24
1026.70	1648.61
1026.86	1675.24
1027.02	1693.67
1027.17	1638.38
1027.33	1728.49
1027.48	1763.30
1027.64	1703.91
1027.80	1624.04
1027.95	1722.34
1028.11	1671.14
1028.27	1603.56
1028.42	1699.81
1028.58	1693.67
1028.73	1640.42
1028.89	1619.94
1029.05	1734.63
1029.20	1769.44
>>>>>End Processed Spectral Data<<<<<
