SpectraSuite Data File
++++++++++++++++++++++++++++++++++++
Date: Tue Jun 13 11:50:59 CEST 2017
User: INFO_000
Dark Spectrum Present: No
Reference Spectrum Present: No
Number of Sampled Component Spectra: 1
Spectrometers: USB4H00879
Integration Time (usec): 30000 (USB4H00879)
Spectra Averaged: 1 (USB4H00879)
Boxcar Smoothing: 0 (USB4H00879)
Correct for Electrical Dark: No (USB4H00879)
Strobe/Lamp Enabled: No (USB4H00879)
Correct for Detector Non-linearity: No (USB4H00879)
Correct for Stray Light: No (USB4H00879)
Number of Pixels in Processed Spectrum: 3648
>>>>>Begin Processed Spectral Data<<<<<
345.13	1341.42
345.34	1341.42
345.56	1341.42
345.78	1327.08
345.99	1325.04
346.21	1503.21
346.42	1540.07
346.64	1480.68
346.86	1521.64
347.07	1472.49
347.29	1433.58
347.50	1495.02
347.72	1499.11
347.94	1533.93
348.15	1533.93
348.37	1476.59
348.59	1546.22
348.80	1495.02
349.02	1628.14
349.23	1648.61
349.45	1531.88
349.67	1648.61
349.88	1640.42
350.10	1708.01
350.31	1595.37
350.53	1572.84
350.75	1681.38
350.96	1634.28
351.18	1626.09
351.39	1691.62
351.61	1667.05
351.82	1710.05
352.04	1644.52
352.26	1658.85
352.47	1689.57
352.69	1656.81
352.90	1595.37
353.12	1564.65
353.34	1691.62
353.55	1685.48
353.77	1652.71
353.98	1652.71
354.20	1593.32
354.41	1736.68
354.63	1751.01
354.85	1734.63
355.06	1634.28
355.28	1597.42
355.49	1650.66
355.71	1671.14
355.92	1597.42
356.14	1681.38
356.35	1667.05
356.57	1681.38
356.79	1738.73
357.00	1677.29
357.22	1697.77
357.43	1630.18
357.65	1677.29
357.86	1609.70
358.08	1679.33
358.29	1675.24
358.51	1738.73
358.72	1746.92
358.94	1830.88
359.16	1685.48
359.37	1578.98
359.59	1757.16
359.80	1777.64
360.02	1701.86
360.23	1687.53
360.45	1738.73
360.66	1753.06
360.88	1693.67
361.09	1744.87
361.31	1714.15
361.52	1720.29
361.74	1802.21
361.95	1855.46
362.17	1765.35
362.38	1781.73
362.60	1769.44
362.81	1767.40
363.03	1748.97
363.24	1802.21
363.46	1773.54
363.67	1794.02
363.89	1744.87
364.10	1683.43
364.32	1718.25
364.53	1732.58
364.75	1748.97
364.96	1781.73
365.18	1736.68
365.39	1726.44
365.61	1773.54
365.82	1832.93
366.04	1806.31
366.25	1726.44
366.47	1763.30
366.68	1828.84
366.90	1736.68
367.11	1814.50
367.33	1859.56
367.54	1806.31
367.76	1736.68
367.97	1810.40
368.19	1867.75
368.40	1783.78
368.62	1814.50
368.83	1820.64
369.05	1746.92
369.26	1804.26
369.48	1884.13
369.69	1769.44
369.91	1808.36
370.12	1861.60
370.33	1861.60
370.55	1830.88
370.76	1742.82
370.98	1918.95
371.19	1820.64
371.41	1910.75
371.62	1837.03
371.84	1875.94
372.05	1888.23
372.27	1853.41
372.48	1902.56
372.69	1914.85
372.91	1896.42
373.12	1951.71
373.34	1937.38
373.55	1972.19
373.77	1945.57
373.98	2013.15
374.20	1925.09
374.41	1890.28
374.62	1957.86
374.84	2068.45
375.05	2000.87
375.27	2000.87
375.48	2058.21
375.70	2002.91
375.91	1976.29
376.12	2023.39
376.34	2027.49
376.55	2072.54
376.77	2015.20
376.98	1955.81
377.19	2074.59
377.41	2019.30
377.62	2009.06
377.84	2023.39
378.05	2103.26
378.27	2117.60
378.48	2064.35
378.69	2105.31
378.91	2076.64
379.12	2097.12
379.34	2064.35
379.55	2133.98
379.76	2082.78
379.98	2123.74
380.19	2050.02
380.41	2076.64
380.62	2088.93
380.83	2086.88
381.05	2105.31
381.26	2220.00
381.47	2058.21
381.69	2136.03
381.90	2238.43
382.12	2179.04
382.33	2164.70
382.54	2125.79
382.76	2185.18
382.97	2170.85
383.19	2090.98
383.40	2263.01
383.61	2181.09
383.83	2215.90
384.04	2160.61
384.25	2209.76
384.47	2277.34
384.68	2250.72
384.89	2152.42
385.11	2211.81
385.32	2217.95
385.54	2260.96
385.75	2281.44
385.96	2279.39
386.18	2156.51
386.39	2322.40
386.60	2314.20
386.82	2357.21
387.03	2263.01
387.24	2361.31
387.46	2359.26
387.67	2332.64
387.88	2396.12
388.10	2394.08
388.31	2334.68
388.52	2475.99
388.74	2385.88
388.95	2361.31
389.16	2510.81
389.38	2422.75
389.59	2447.32
389.80	2449.37
390.02	2402.27
390.23	2516.95
390.44	2404.32
390.66	2475.99
390.87	2482.14
391.08	2426.84
391.30	2553.82
391.51	2559.96
391.72	2504.67
391.94	2504.67
392.15	2551.77
392.36	2529.24
392.58	2527.19
392.79	2551.77
393.00	2516.95
393.22	2668.50
393.43	2658.26
393.64	2662.36
393.85	2639.83
394.07	2498.52
394.28	2637.78
394.49	2709.46
394.71	2621.40
394.92	2676.70
395.13	2686.94
395.35	2658.26
395.56	2691.03
395.77	2719.70
395.98	2822.10
396.20	2889.68
396.41	2832.34
396.62	2838.48
396.84	2740.18
397.05	2787.29
397.26	2865.11
397.47	2883.54
397.69	2772.95
397.90	2910.16
398.11	2824.15
398.32	2764.76
398.54	2901.97
398.75	2877.40
398.96	2801.62
399.18	2942.93
399.39	3002.32
399.60	2959.31
399.81	2910.16
400.03	2914.26
400.24	3102.67
400.45	2906.07
400.66	3000.27
400.88	3063.76
401.09	3137.49
401.30	3155.92
401.51	3045.33
401.73	3094.48
401.94	3033.04
402.15	3190.74
402.36	3119.06
402.58	3045.33
402.79	3151.82
403.00	3264.46
403.21	3160.02
403.43	3155.92
403.64	3297.23
403.85	3192.78
404.06	3221.45
404.27	3125.20
404.49	3260.37
404.70	3190.74
404.91	3356.62
405.12	3299.28
405.34	3215.31
405.55	3383.24
405.76	3246.03
405.97	3346.38
406.19	3342.28
406.40	3231.69
406.61	3350.48
406.82	3389.39
407.03	3358.67
407.25	3295.18
407.46	3411.92
407.67	3479.50
407.88	3332.05
408.09	3477.45
408.31	3383.24
408.52	3442.64
408.73	3459.02
408.94	3368.91
409.15	3557.32
409.37	3606.47
409.58	3561.42
409.79	3526.60
410.00	3614.66
410.21	3483.59
410.43	3667.91
410.64	3463.12
410.85	3624.90
411.06	3510.22
411.27	3557.32
411.48	3680.20
411.70	3588.04
411.91	3590.09
412.12	3755.97
412.33	3774.41
412.54	3725.26
412.76	3889.09
412.97	3772.36
413.18	3647.43
413.39	3659.72
413.60	3735.50
413.81	3876.80
414.03	3872.71
414.24	4003.78
414.45	3864.52
414.66	3776.45
414.87	3977.16
415.08	3809.22
415.30	3907.52
415.51	3817.41
415.72	3938.24
415.93	3966.92
416.14	4032.45
416.35	3893.19
416.56	3977.16
416.78	3901.38
416.99	4050.88
417.20	4054.98
417.41	4061.12
417.62	4071.36
417.83	4130.75
418.04	4212.67
418.26	4114.37
418.47	4147.14
418.68	4237.25
418.89	4124.61
419.10	4165.57
419.31	4265.92
419.52	4204.48
419.73	4204.48
419.95	4341.69
420.16	4229.06
420.37	4380.61
420.58	4241.34
420.79	4194.24
421.00	4288.45
421.21	4411.32
421.42	4274.11
421.63	4351.93
421.85	4345.79
422.06	4534.20
422.27	4431.80
422.48	4513.72
422.69	4546.49
422.90	4499.39
423.11	4548.54
423.32	4460.48
423.53	4644.79
423.75	4663.22
423.96	4816.82
424.17	4706.23
424.38	4786.10
424.59	4702.14
424.80	4851.64
425.01	4906.93
425.22	4734.90
425.43	4775.86
425.64	4923.32
425.85	4904.89
426.06	4810.68
426.28	5046.20
426.49	4847.54
426.70	4980.66
426.91	4876.21
427.12	5056.43
427.33	5019.57
427.54	5124.02
427.75	5146.55
427.96	5222.32
428.17	5048.24
428.38	5248.94
428.59	5226.42
428.80	5248.94
429.01	5361.58
429.23	4988.85
429.44	5533.61
429.65	5451.69
429.86	5425.07
430.07	5263.28
430.28	5351.34
430.49	5357.49
430.70	5541.80
430.91	5509.04
431.12	5466.03
431.33	5568.43
431.54	5582.76
431.75	5539.76
431.96	5539.76
432.17	5687.21
432.38	5498.80
432.59	5885.86
432.80	5662.63
433.01	5918.63
433.22	5998.50
433.43	5705.64
433.64	5767.08
433.85	5611.43
434.06	5892.01
434.27	5914.53
434.49	5898.15
434.70	5945.25
434.91	6041.51
435.12	6115.23
435.33	5984.16
435.54	6023.08
435.75	5916.58
435.96	6107.04
436.17	6000.55
436.38	6117.28
436.59	6156.19
436.80	6246.30
437.01	6440.86
437.22	6432.67
437.43	6197.15
437.64	6117.28
437.85	6334.37
438.06	6533.02
438.27	6295.46
438.48	6303.65
438.69	6494.11
438.90	6422.43
439.11	6277.02
439.32	6475.68
439.53	6655.90
439.74	6614.94
439.95	6606.75
440.16	6553.50
440.37	6606.75
440.57	6553.50
440.78	6502.30
440.99	6825.88
441.20	6563.74
441.41	6854.55
441.62	6750.10
441.83	6684.57
442.04	6721.43
442.25	6864.79
442.46	6864.79
442.67	6989.72
442.88	7231.38
443.09	6827.93
443.30	6813.59
443.51	6952.85
443.72	7214.99
443.93	7024.53
444.14	7192.47
444.35	6965.14
444.56	7212.95
444.77	7219.09
444.98	7059.35
445.19	7327.63
445.40	7217.04
445.61	7194.51
445.81	7391.12
446.02	7456.65
446.23	7202.71
446.44	7161.75
446.65	7270.29
446.86	7282.58
447.07	7391.12
447.28	7622.54
447.49	7518.09
447.70	7495.57
447.91	7653.26
448.12	7468.94
448.33	7688.07
448.54	7671.69
448.74	7520.14
448.95	7757.71
449.16	7593.87
449.37	7937.93
449.58	7653.26
449.79	7993.22
450.00	7624.59
450.21	7878.54
450.42	7894.92
450.63	8112.00
450.84	7905.16
451.05	8075.14
451.25	8069.00
451.46	7765.90
451.67	8069.00
451.88	8443.78
452.09	8169.35
452.30	8202.11
452.51	8308.61
452.72	8271.75
452.93	8638.33
453.13	8351.62
453.34	8345.47
453.55	8226.69
453.76	8292.23
453.97	8712.06
454.18	8552.32
454.39	8656.76
454.60	8572.80
454.81	8722.30
455.01	8818.55
455.22	8636.28
455.43	8791.93
455.64	9043.83
455.85	9068.41
456.06	9195.38
456.27	8939.38
456.48	8875.90
456.68	9107.32
456.89	8931.19
457.10	9265.01
457.31	9090.93
457.52	9129.84
457.73	9326.45
457.94	9482.10
458.14	9338.74
458.35	9682.80
458.56	9406.32
458.77	9389.94
458.98	9693.04
459.19	9525.10
459.39	9789.29
459.60	9850.73
459.81	9760.62
460.02	9983.85
460.23	9906.02
460.44	10018.66
460.65	9985.90
460.85	10182.50
461.06	10119.01
461.27	9854.83
461.48	10387.30
461.69	10463.07
461.89	10205.03
462.10	10565.47
462.31	10270.56
462.52	10250.08
462.73	10358.63
462.94	10620.77
463.14	10547.04
463.35	10633.05
463.56	10993.50
463.77	11054.94
463.98	10870.62
464.18	10753.88
464.39	10962.78
464.60	11231.06
464.81	11095.89
465.02	11018.07
465.23	11474.77
465.43	11241.30
465.64	11716.43
465.85	11462.48
466.06	11333.46
466.27	11775.82
466.47	11644.75
466.68	11632.46
466.89	11671.37
467.10	11913.03
467.30	11861.84
467.51	11775.82
467.72	12255.04
467.93	11704.14
468.14	12089.16
468.34	12328.77
468.55	12369.73
468.76	12259.14
468.97	12228.42
469.17	12568.38
469.38	12777.28
469.59	12719.93
469.80	12560.19
470.01	12894.01
470.21	12840.76
470.42	12996.41
470.63	13190.97
470.84	12947.26
471.04	13416.24
471.25	13100.86
471.46	13025.08
471.67	13477.68
471.87	13758.25
472.08	13639.47
472.29	13772.59
472.50	13330.23
472.70	13793.07
472.91	13936.43
473.12	14069.55
473.33	14047.02
473.53	14348.07
473.74	14223.14
473.95	14372.64
474.16	14853.92
474.36	14673.70
474.57	14638.88
474.78	14833.44
474.99	14632.74
475.19	14706.46
475.40	15023.90
475.61	15124.25
475.81	15365.91
476.02	15761.17
476.23	15449.88
476.44	15775.50
476.64	16092.94
476.85	16013.07
477.06	16117.51
477.27	16258.82
477.47	16269.06
477.68	16250.63
477.89	16455.43
478.09	16527.11
478.30	16461.57
478.51	16649.99
478.71	16834.30
478.92	16826.11
479.13	17037.05
479.34	17374.97
479.54	17069.82
479.75	17211.13
479.96	17606.39
480.16	17745.65
480.37	17606.39
480.58	17952.49
480.78	17893.10
480.99	18114.28
481.20	18093.80
481.41	18312.94
481.61	18437.86
481.82	18577.12
482.03	18685.67
482.23	18609.89
482.44	18790.11
482.65	18855.65
482.85	18908.90
483.06	19125.98
483.27	18972.38
483.47	19232.47
483.68	19336.92
483.89	19535.57
484.09	19588.82
484.30	19691.22
484.51	20256.46
484.71	20299.47
484.92	20072.14
485.13	20291.27
485.33	20158.16
485.54	20246.22
485.75	20580.04
485.95	20840.13
486.16	20856.51
486.37	20756.16
486.57	20920.00
486.78	21020.35
486.98	21003.97
487.19	21352.12
487.40	21520.06
487.60	21456.57
487.81	21731.00
488.02	21819.06
488.22	21599.93
488.43	22060.72
488.64	22066.86
488.84	22163.12
489.05	22226.60
489.25	22283.95
489.46	22578.86
489.67	22496.94
489.87	22763.17
490.08	22617.77
490.29	22568.62
490.49	23334.56
490.70	23365.28
490.90	23289.50
491.11	23275.16
491.32	23508.63
491.52	23490.20
491.73	23527.06
491.94	23801.49
492.14	24045.20
492.35	24319.63
492.55	24209.04
492.76	24368.78
492.97	24456.84
493.17	24174.22
493.38	24620.68
493.58	24682.12
493.79	24733.32
494.00	24839.81
494.20	24852.10
494.41	24938.12
494.61	25161.34
494.82	25187.97
495.02	25329.28
495.23	25308.80
495.44	25493.12
495.64	25470.59
495.85	25845.37
496.05	25953.91
496.26	25835.13
496.47	25947.76
496.67	25685.62
496.88	26238.58
497.08	25833.08
497.29	26300.01
497.49	26529.39
497.70	26746.47
497.91	26666.60
498.11	26984.04
498.32	26947.17
498.52	26891.88
498.73	27266.66
498.93	27125.35
499.14	27381.34
499.34	27186.79
499.55	27311.71
499.76	27506.27
499.96	27407.97
500.17	27543.13
500.37	27803.22
500.58	27846.23
500.78	27840.09
500.99	27985.49
501.19	28108.37
501.40	28237.39
501.60	28190.29
501.81	28409.42
502.02	28874.31
502.22	28372.56
502.43	28726.86
502.63	28612.17
502.84	28767.82
503.04	28616.27
503.25	28812.87
503.45	28876.36
503.66	29185.60
503.86	28823.11
504.07	29613.63
504.27	29224.51
504.48	29523.52
504.68	29179.46
504.89	29802.04
505.09	29646.40
505.30	29713.98
505.50	29808.19
505.71	29820.47
505.91	30066.23
506.12	29922.87
506.32	30078.52
506.53	30238.26
506.73	30377.52
506.94	30522.93
507.14	30033.46
507.35	30187.06
507.55	30516.78
507.76	30633.52
507.96	30379.57
508.17	30826.03
508.37	30776.87
508.58	30551.60
508.78	30676.52
508.99	31280.67
509.19	30887.46
509.40	31125.03
509.60	31221.28
509.81	31131.17
510.01	31211.04
510.22	31098.41
510.42	31485.47
510.63	31481.38
510.83	31485.47
511.04	31436.32
511.24	31573.53
511.44	31499.81
511.65	31329.83
511.85	31802.91
512.06	31761.95
512.26	32370.19
512.47	32052.76
512.67	31909.40
512.88	32101.91
513.08	32079.38
513.29	32534.03
513.49	32368.15
513.69	32499.22
513.90	32263.70
514.10	32429.59
514.31	32540.18
514.51	32654.86
514.72	32814.60
514.92	32753.16
515.13	32783.88
515.33	32824.84
515.53	32806.41
515.74	32859.66
515.94	33170.95
516.15	33052.17
516.35	32888.33
516.56	33445.38
516.76	33250.82
516.96	33402.37
517.17	33490.43
517.37	33461.76
517.58	33662.46
517.78	33658.37
517.99	33568.26
518.19	33793.53
518.39	34225.65
518.60	34176.50
518.80	34035.19
519.01	33938.94
519.21	34108.92
519.41	34205.17
519.62	34350.58
519.82	34364.92
520.03	34612.72
520.23	34461.17
520.43	34326.00
520.64	34766.32
520.84	34862.57
521.05	34848.24
521.25	35018.22
521.45	35354.08
521.66	35180.01
521.86	34919.92
522.07	35075.56
522.27	35296.74
522.47	35102.18
522.68	35780.06
522.88	35558.88
523.08	35622.37
523.29	35827.17
523.49	35980.76
523.70	35800.54
523.90	36406.74
524.10	35976.67
524.31	36163.03
524.51	36036.06
524.71	36361.69
524.92	36255.19
525.12	36564.43
525.33	36330.97
525.53	36652.50
525.73	36806.09
525.94	37012.94
526.14	36953.55
526.34	37012.94
526.55	37045.71
526.75	36926.92
526.95	37682.62
527.16	37492.16
527.36	37268.94
527.56	37492.16
527.77	37557.70
527.97	37475.78
528.17	37807.55
528.38	37989.82
528.58	37850.56
528.78	37942.72
528.99	37828.03
529.19	38233.53
529.39	38090.17
529.60	38489.52
529.80	38227.38
530.00	38196.67
530.21	38716.85
530.41	38718.90
530.61	38915.50
530.82	39093.68
531.02	38901.17
531.22	39079.34
531.43	38976.94
531.63	39673.25
531.83	39763.36
532.04	39677.35
532.24	39501.22
532.44	40226.20
532.64	39916.96
532.85	40304.02
533.05	40277.40
533.25	40125.85
533.46	39818.66
533.66	41002.38
533.86	40084.89
534.07	40805.78
534.27	40721.81
534.47	41008.53
534.67	40818.07
534.88	40578.45
535.08	41063.82
535.28	41285.00
535.49	41618.82
535.69	41350.54
535.89	41692.55
536.09	41786.75
536.30	41465.22
536.50	41678.21
536.70	42153.34
536.91	41999.74
537.11	42018.17
537.31	41946.50
537.51	42403.19
537.72	42515.83
537.92	42198.40
538.12	42900.85
538.32	42849.65
538.53	42995.06
538.73	42476.92
538.93	42587.51
539.13	42929.52
539.34	43019.63
539.54	42800.50
539.74	43656.55
539.94	43513.19
540.15	43287.92
540.35	43615.59
540.55	43212.14
540.75	43418.99
540.96	43771.24
541.16	43775.33
541.36	43908.45
541.56	43943.27
541.77	44107.10
541.97	43871.59
542.17	44309.85
542.37	44246.36
542.58	44221.79
542.78	44270.94
542.98	44453.21
543.18	44604.76
543.38	44782.93
543.59	44877.14
543.79	44551.51
543.99	44961.11
544.19	44977.49
544.40	45231.44
544.60	45292.88
544.80	44930.39
545.00	45069.65
545.20	45008.21
545.41	45174.09
545.61	45002.07
545.81	45784.39
546.01	45593.93
546.21	45464.91
546.42	45704.52
546.62	45172.05
546.82	45712.71
547.02	45497.67
547.22	45923.65
547.43	45751.62
547.63	45886.79
547.83	46003.52
548.03	45600.07
548.23	46073.15
548.44	45956.42
548.64	46183.74
548.84	46474.55
549.04	46218.56
549.24	46372.16
549.45	46370.11
549.65	46624.06
549.85	46728.50
550.05	46804.28
550.25	46699.83
550.45	47156.53
550.66	46619.96
550.86	46599.48
551.06	46873.91
551.26	46693.69
551.46	46869.81
551.66	46927.16
551.87	46916.92
552.07	47447.34
552.27	47230.26
552.47	47058.23
552.67	47469.87
552.87	47303.98
553.07	47351.09
553.28	47600.94
553.48	47482.16
553.68	47287.60
553.88	47869.22
554.08	47703.34
554.28	47744.30
554.48	47484.20
554.69	47777.06
554.89	47398.19
555.09	48198.94
555.29	47945.00
555.49	47873.32
555.69	47973.67
555.89	47973.67
556.10	47924.52
556.30	47725.86
556.50	48223.52
556.70	47881.51
556.90	48356.64
557.10	48491.80
557.30	48057.63
557.50	48407.84
557.70	48391.45
557.91	48438.56
558.11	48102.69
558.31	48755.99
558.51	48430.36
558.71	48278.82
558.91	48932.12
559.11	48180.51
559.31	48698.65
559.51	48882.97
559.72	48659.74
559.92	48905.49
560.12	48518.43
560.32	48835.86
560.52	48778.52
560.72	48749.85
560.92	48938.26
561.12	48604.44
561.32	49095.95
561.52	48774.42
561.72	49462.54
561.93	48956.69
562.13	49204.50
562.33	48520.48
562.53	49573.13
562.73	48975.12
562.93	48940.31
563.13	49112.34
563.33	48753.94
563.53	49583.37
563.73	49077.52
563.93	49057.04
564.13	49589.52
564.33	49261.84
564.53	49159.44
564.74	49667.34
564.94	49386.77
565.14	49317.14
565.34	49255.70
565.54	49812.74
565.74	49523.98
565.94	50144.51
566.14	49675.53
566.34	49657.10
566.54	50242.82
566.74	49401.10
566.94	50062.60
567.14	49796.36
567.34	49464.59
567.54	49702.15
567.74	49339.66
567.94	49939.72
568.14	50021.64
568.34	49941.77
568.54	50017.54
568.74	50042.12
568.94	50095.36
569.14	50173.19
569.34	50015.49
569.54	50220.29
569.75	50025.73
569.95	50201.86
570.15	50625.79
570.35	50164.99
570.55	50439.42
570.75	50312.45
570.95	50535.68
571.15	50156.80
571.35	50267.39
571.55	50638.08
571.75	49943.81
571.95	50937.08
572.15	50248.96
572.35	50889.98
572.55	50732.28
572.75	50380.03
572.95	51246.32
573.15	50666.75
573.35	50865.40
573.55	50629.88
573.75	50724.09
573.95	51092.72
574.15	50842.87
574.35	51152.12
574.55	50910.46
574.75	51348.72
574.95	51084.53
575.15	50922.74
575.34	50769.15
575.54	51391.73
575.74	51287.28
575.94	51698.92
576.14	51102.96
576.34	51565.81
576.54	52004.07
576.74	52034.79
576.94	51442.93
577.14	51766.51
577.34	52147.43
577.54	51612.91
577.74	51428.59
577.94	51756.27
578.14	51764.46
578.34	51901.67
578.54	51627.24
578.74	52028.65
578.94	52014.31
579.14	51569.90
579.34	51811.56
579.54	51901.67
579.74	52419.81
579.94	52004.07
580.13	52341.99
580.33	51985.64
580.53	52346.08
580.73	52327.65
580.93	52350.18
581.13	52548.83
581.33	52956.38
581.53	52591.84
581.73	52591.84
581.93	52583.65
582.13	52780.25
582.33	52428.00
582.53	52589.79
582.73	52761.82
582.92	52577.50
583.12	53005.53
583.32	52776.15
583.52	52425.95
583.72	53011.67
583.92	52739.29
584.12	53040.34
584.32	53783.76
584.52	53126.36
584.72	53075.16
584.92	53109.97
585.11	53640.40
585.31	53279.96
585.51	53349.59
585.71	53103.83
585.91	53519.57
586.11	53050.58
586.31	53124.31
586.51	53400.79
586.71	53425.36
586.91	54076.61
587.10	53662.93
587.30	53640.40
587.50	53765.32
587.70	53705.93
587.90	54152.39
588.10	53826.76
588.30	53845.19
588.50	54058.18
588.69	53869.77
588.89	53855.43
589.09	53677.26
589.29	54334.66
589.49	54348.99
589.69	53875.91
589.89	54863.03
590.08	54592.70
590.28	54336.71
590.48	54129.86
590.68	54045.90
590.88	54279.36
591.08	54600.89
591.28	54244.55
591.47	54609.09
591.67	55170.23
591.87	54850.75
592.07	54246.60
592.27	54633.66
592.47	54441.15
592.67	54836.41
592.86	54408.39
593.06	54592.70
593.26	54924.47
593.46	54877.37
593.66	55059.64
593.86	54903.99
594.05	54860.99
594.25	55041.21
594.45	54865.08
594.65	54609.09
594.85	54459.58
595.05	54967.48
595.24	54908.09
595.44	54734.01
595.64	55071.93
595.84	54621.37
596.04	55262.39
596.23	55270.58
596.43	55340.21
596.63	55624.88
596.83	55131.32
597.03	55469.23
597.22	55248.05
597.42	55137.46
597.62	55391.41
597.82	55606.45
598.02	55801.00
598.21	56048.81
598.41	55272.63
598.61	55737.52
598.81	55803.05
599.01	55878.83
599.20	55676.08
599.40	55639.22
599.60	55495.86
599.80	55669.93
600.00	56265.89
600.19	56063.14
600.39	55606.45
600.59	56149.16
600.79	56151.21
600.98	56358.05
601.18	56206.50
601.38	56165.54
601.58	56313.00
601.78	56364.20
601.97	56179.88
602.17	56730.78
602.37	56773.79
602.57	56878.24
602.76	56669.34
602.96	56362.15
603.16	56642.72
603.36	56687.78
603.55	56841.37
603.75	56626.34
603.95	56646.82
604.15	56745.12
604.34	56833.18
604.54	57132.18
604.74	56796.32
604.94	57218.20
605.13	57087.13
605.33	56798.37
605.53	56718.49
605.73	57228.44
605.92	57025.69
606.12	57185.43
606.32	57451.67
606.52	57080.98
606.71	57363.60
606.91	57750.67
607.11	57271.45
607.30	57357.46
607.50	57425.04
607.70	57271.45
607.90	57195.67
608.09	57257.11
608.29	57388.18
608.49	57253.01
608.68	57343.12
608.88	57629.84
609.08	57678.99
609.28	57676.94
609.47	57330.84
609.67	57590.93
609.87	57625.74
610.06	57613.46
610.26	57652.37
610.46	58016.91
610.66	57705.62
610.85	57750.67
611.05	57267.35
611.25	57549.97
611.44	57525.39
611.64	57619.60
611.84	57685.14
612.03	57595.03
612.23	57349.27
612.43	57904.27
612.62	57365.65
612.82	57642.13
613.02	57875.60
613.21	57791.63
613.41	57230.49
613.61	57988.24
613.80	57398.42
614.00	57994.38
614.20	57750.67
614.39	57773.20
614.59	58047.63
614.79	57560.21
614.98	57588.88
615.18	57836.69
615.38	57685.14
615.57	57504.91
615.77	57793.68
615.97	57980.04
616.16	57390.23
616.36	57750.67
616.56	57986.19
616.75	57746.57
616.95	57506.96
617.15	57062.55
617.34	57808.01
617.54	57359.51
617.74	57771.15
617.93	57869.45
618.13	57242.77
618.32	57240.73
618.52	57117.85
618.72	58035.34
618.91	57459.86
619.11	57414.80
619.31	57570.45
619.50	57414.80
619.70	57189.53
619.90	57537.68
620.09	57611.41
620.29	57386.13
620.48	57412.76
620.68	57932.94
620.88	57519.25
621.07	57771.15
621.27	57537.68
621.46	56958.11
621.66	57535.63
621.86	57029.79
622.05	57099.42
622.25	57490.58
622.44	57222.29
622.64	57119.90
622.84	57414.80
623.03	57066.65
623.23	56800.41
623.42	56990.87
623.62	57132.18
623.82	57420.95
624.01	56597.66
624.21	57046.17
624.40	57083.03
624.60	57087.13
624.80	56820.89
624.99	56718.49
625.19	56368.29
625.38	57007.26
625.58	57062.55
625.77	56941.72
625.97	57134.23
626.17	56384.68
626.36	57160.86
626.56	56919.20
626.75	56222.89
626.95	57156.76
627.14	56407.20
627.34	57154.71
627.54	56571.04
627.73	56722.59
627.93	56767.65
628.12	56222.89
628.32	56249.51
628.51	56513.70
628.71	56994.97
628.90	56632.48
629.10	56448.16
629.30	57175.19
629.49	56644.77
629.69	56495.27
629.88	56792.22
630.08	56874.14
630.27	56884.38
630.47	57171.10
630.66	56464.55
630.86	56794.27
631.05	56415.40
631.25	56857.76
631.44	56835.23
631.64	56710.30
631.84	56499.36
632.03	56775.84
632.23	56489.12
632.42	56497.31
632.62	56716.45
632.81	56456.35
633.01	56329.38
633.20	56568.99
633.40	56927.39
633.59	56800.41
633.79	56505.51
633.98	56730.78
634.18	56579.23
634.37	56718.49
634.57	56718.49
634.76	56421.54
634.96	56542.37
635.15	56272.04
635.35	56485.03
635.54	56642.72
635.74	56607.90
635.93	56450.21
636.13	56616.10
636.32	56368.29
636.52	56140.97
636.71	56495.27
636.91	56450.21
637.10	56669.34
637.30	56538.27
637.49	56302.76
637.69	56276.13
637.88	56546.47
638.08	56249.51
638.27	56767.65
638.46	56511.65
638.66	56247.46
638.85	56761.50
639.05	56644.77
639.24	56163.50
639.44	56515.75
639.63	56564.90
639.83	56327.33
640.02	56767.65
640.22	56151.21
640.41	57226.39
640.61	55762.09
640.80	56482.98
640.99	56308.90
641.19	56734.88
641.38	56407.20
641.58	56345.76
641.77	55870.64
641.97	56005.80
642.16	55925.93
642.36	56708.25
642.55	57056.41
642.74	56167.59
642.94	56788.13
643.13	56138.92
643.33	56751.26
643.52	56405.16
643.72	56413.35
643.91	56321.19
644.10	56226.98
644.30	56655.01
644.49	56337.57
644.69	56396.96
644.88	56796.32
645.08	56013.99
645.27	56474.79
645.46	56308.90
645.66	56573.09
645.85	56478.88
646.05	56274.09
646.24	56407.20
646.43	56046.76
646.63	56642.72
646.82	56884.38
647.02	56509.60
647.21	56706.21
647.40	56161.45
647.60	56587.42
647.79	56521.89
647.99	56820.89
648.18	56155.30
648.37	57220.25
648.57	56384.68
648.76	56810.65
648.96	56077.48
649.15	56452.26
649.34	56878.24
649.54	56587.42
649.73	56396.96
649.92	56284.33
650.12	56552.61
650.31	56771.74
650.51	56595.62
650.70	56659.10
650.89	56374.44
651.09	57410.71
651.28	56429.73
651.47	56593.57
651.67	56579.23
651.86	57042.07
652.06	56396.96
652.25	56425.64
652.44	56241.32
652.64	56612.00
652.83	56806.56
653.02	56470.69
653.22	56235.17
653.41	56200.36
653.60	56550.56
653.80	56341.67
653.99	56818.84
654.18	56132.78
654.38	56317.09
654.57	56349.86
654.76	56274.09
654.96	56210.60
655.15	56329.38
655.34	56218.79
655.54	56024.23
655.73	56493.22
655.92	56235.17
656.12	56401.06
656.31	56245.41
656.50	56104.10
656.70	56427.68
656.89	56276.13
657.08	56798.37
657.28	56482.98
657.47	56425.64
657.66	56218.79
657.86	56388.77
658.05	56720.54
658.24	56394.92
658.43	55637.17
658.63	56439.97
658.82	56140.97
659.01	56200.36
659.21	56310.95
659.40	55934.12
659.59	55796.91
659.79	56018.09
659.98	56591.52
660.17	56384.68
660.36	55921.83
660.56	56214.69
660.75	56343.72
660.94	56163.50
661.14	55719.09
661.33	55788.72
661.52	55788.72
661.71	56648.86
661.91	55868.59
662.10	55870.64
662.29	56003.75
662.49	56190.12
662.68	56204.45
662.87	56057.00
663.06	56313.00
663.26	55817.39
663.45	56702.11
663.64	55868.59
663.83	56132.78
664.03	56048.81
664.22	56104.10
664.41	56210.60
664.60	55458.99
664.80	55706.80
664.99	55479.47
665.18	55864.49
665.37	55755.95
665.57	55760.05
665.76	55686.32
665.95	55954.60
666.14	55719.09
666.34	55958.70
666.53	55801.00
666.72	56048.81
666.91	55444.66
667.11	55354.55
667.30	55497.91
667.49	55590.06
667.68	55610.54
667.87	55502.00
668.07	55968.94
668.26	55852.20
668.45	55540.91
668.64	55094.46
668.84	56007.85
669.03	55936.17
669.22	55504.05
669.41	55774.38
669.60	55479.47
669.80	54959.29
669.99	55674.03
670.18	55272.63
670.37	55495.86
670.57	55983.27
670.76	55186.61
670.95	55575.73
671.14	55065.78
671.33	55508.14
671.53	55461.04
671.72	55573.68
671.91	55090.36
672.10	55585.97
672.29	55313.59
672.48	54994.10
672.68	55243.96
672.87	55645.36
673.06	54926.52
673.25	55059.64
673.44	55305.40
673.64	54617.28
673.83	54967.48
674.02	54975.67
674.21	54277.32
674.40	54881.47
674.59	54928.57
674.79	54738.11
674.98	54506.69
675.17	55016.63
675.36	54539.46
675.55	55393.46
675.74	54516.93
675.94	54932.67
676.13	54611.13
676.32	54684.86
676.51	55170.23
676.70	54817.98
676.89	54686.91
677.08	54742.20
677.28	54535.36
677.47	55100.60
677.66	55039.16
677.85	54951.10
678.04	54754.49
678.23	55028.92
678.42	54541.50
678.62	54621.37
678.81	54848.70
679.00	54295.75
679.19	54629.57
679.38	54428.87
679.57	54729.92
679.76	54244.55
679.96	54432.96
680.15	54314.18
680.34	54187.21
680.53	54105.29
680.72	54703.29
680.91	54435.01
681.10	53834.95
681.29	54553.79
681.48	54629.57
681.68	54371.52
681.87	53986.50
682.06	54381.76
682.25	54027.46
682.44	53716.17
682.63	54043.85
682.82	53959.88
683.01	53507.28
683.20	53716.17
683.39	53994.70
683.59	53175.51
683.78	53882.06
683.97	53488.85
684.16	54097.09
684.35	53615.82
684.54	53503.18
684.73	53611.73
684.92	53570.77
685.11	53417.17
685.30	53277.91
685.49	53851.34
685.69	53253.33
685.88	53359.83
686.07	53146.84
686.26	53138.65
686.45	53138.65
686.64	53269.72
686.83	53083.35
687.02	53085.40
687.21	53277.91
687.40	53343.44
687.59	53376.21
687.78	53128.41
687.97	53406.93
688.16	53220.56
688.35	53150.93
688.54	53073.11
688.74	52913.37
688.93	52698.33
689.12	53064.92
689.31	52583.65
689.50	52753.63
689.69	52563.17
689.88	52176.10
690.07	52518.11
690.26	52384.99
690.45	53030.10
690.64	52731.10
690.83	52569.31
691.02	52305.12
691.21	52454.62
691.40	52239.59
691.59	52348.13
691.78	52546.78
691.97	52473.06
692.16	52231.40
692.35	52241.63
692.54	52366.56
692.73	52223.20
692.92	52221.16
693.11	52430.05
693.30	51733.74
693.49	52190.44
693.68	52239.59
693.87	51883.24
694.06	51807.47
694.25	52061.41
694.44	51692.78
694.63	51645.68
694.82	51850.47
695.01	52051.17
695.20	51510.51
695.39	51530.99
695.58	51684.59
695.77	51500.27
695.96	51309.81
696.15	51361.01
696.34	51023.09
696.53	51688.68
696.72	51729.64
696.91	51205.36
697.10	51098.87
697.29	51383.54
697.48	51588.33
697.67	50926.84
697.86	50500.86
698.05	51082.48
698.24	51109.11
698.43	51035.38
698.62	50767.10
698.81	50601.21
699.00	51137.78
699.19	50904.31
699.38	50865.40
699.57	50066.69
699.76	51424.50
699.95	51019.00
700.14	50623.74
700.32	50517.25
700.51	50722.04
700.70	51055.86
700.89	50603.26
701.08	50646.27
701.27	50019.59
701.46	50547.96
701.65	50064.64
701.84	50697.47
702.03	50566.40
702.22	49829.13
702.41	50476.29
702.60	50124.04
702.79	50054.40
702.98	49720.59
703.17	50185.47
703.35	50095.36
703.54	49683.72
703.73	50169.09
703.92	49833.22
704.11	49947.91
704.30	49536.27
704.49	49341.71
704.68	49718.54
704.87	49984.77
705.06	49335.57
705.25	49478.92
705.43	49382.67
705.62	49591.56
705.81	49566.99
706.00	49591.56
706.19	49378.57
706.38	49192.21
706.57	49429.77
706.76	48944.41
706.95	48842.01
707.14	48905.49
707.32	49315.09
707.51	48895.25
707.70	48590.11
707.89	48889.11
708.08	48985.36
708.27	48964.88
708.46	49214.74
708.65	48870.68
708.84	48995.60
709.02	48921.88
709.21	49138.96
709.40	48624.92
709.59	48829.72
709.78	48258.34
709.97	48823.58
710.16	48203.04
710.34	48610.59
710.53	48573.72
710.72	48180.51
710.91	48364.83
711.10	48690.46
711.29	48233.76
711.48	48319.77
711.66	48166.18
711.85	48112.93
712.04	48211.23
712.23	47994.15
712.42	47865.13
712.61	47887.65
712.80	47879.46
712.98	48270.62
713.17	47809.83
713.36	48200.99
713.55	48039.20
713.74	47346.99
713.93	47791.40
714.11	47652.14
714.30	47715.62
714.49	47299.89
714.68	47451.44
714.87	47754.54
715.06	47494.44
715.24	47379.76
715.43	47205.68
715.62	47031.60
715.81	47451.44
716.00	46986.55
716.18	47301.93
716.37	46847.29
716.56	46787.89
716.75	47127.86
716.94	46929.20
717.12	46734.65
717.31	46843.19
717.50	47029.55
717.69	46873.91
717.88	46382.40
718.06	46847.29
718.25	47023.41
718.44	46830.90
718.63	46337.34
718.82	46314.81
719.00	46449.98
719.19	46341.44
719.38	46380.35
719.57	46034.24
719.76	46067.01
719.94	45634.89
720.13	46089.54
720.32	46212.41
720.51	45894.98
720.69	45921.60
720.88	45983.04
721.07	45765.96
721.26	45157.71
721.44	45833.54
721.63	45636.94
721.82	45335.88
722.01	45294.92
722.20	45491.53
722.38	44914.00
722.57	44940.63
722.76	45317.45
722.95	45133.14
723.13	44883.28
723.32	44827.99
723.51	44635.48
723.70	44518.74
723.88	44879.19
724.07	44369.24
724.26	44571.99
724.44	44166.49
724.63	44875.09
724.82	44655.96
725.01	44475.74
725.19	44467.55
725.38	44209.50
725.57	44125.53
725.76	44266.84
725.94	44127.58
726.13	44193.12
726.32	44250.46
726.51	43873.63
726.69	44236.12
726.88	44205.41
727.07	43982.18
727.25	44234.08
727.44	44465.50
727.63	43662.69
727.82	44168.54
728.00	43804.00
728.19	43808.10
728.38	44066.14
728.56	43459.94
728.75	44193.12
728.94	43691.37
729.12	44223.84
729.31	43865.44
729.50	43879.78
729.69	43699.56
729.87	43711.84
730.06	43812.20
730.25	43881.83
730.43	44086.62
730.62	43830.63
730.81	43629.93
730.99	43541.86
731.18	43476.33
731.37	43982.18
731.55	43887.97
731.74	43939.17
731.93	43574.63
732.11	43750.76
732.30	43634.02
732.49	43765.09
732.67	43912.55
732.86	43283.82
733.05	43617.64
733.23	43160.94
733.42	43306.35
733.61	43189.61
733.79	43339.11
733.98	43584.87
734.17	43439.47
734.35	43398.51
734.54	42890.61
734.73	43502.95
734.91	43378.03
735.10	43154.80
735.29	43412.84
735.47	42640.76
735.66	43208.04
735.84	43025.78
736.03	42716.53
736.22	43480.42
736.40	43093.36
736.59	42943.86
736.78	42982.77
736.96	42904.95
737.15	42425.72
737.33	42663.28
737.52	42554.74
737.71	42589.56
737.89	42698.10
738.08	42472.82
738.27	42366.33
738.45	42882.42
738.64	42915.19
738.82	42642.81
739.01	42405.24
739.20	42294.65
739.38	42294.65
739.57	42585.46
739.75	42444.15
739.94	42315.13
740.13	42556.79
740.31	42452.34
740.50	42362.23
740.68	42339.71
740.87	42542.45
741.06	41776.51
741.24	42141.05
741.43	41932.16
741.61	42280.31
741.80	41733.51
741.99	41997.70
742.17	42012.03
742.36	42069.37
742.54	41889.15
742.73	41751.94
742.91	41874.82
743.10	41758.08
743.29	41876.86
743.47	41897.34
743.66	41672.07
743.84	41870.72
744.03	41534.85
744.21	41399.69
744.40	41835.91
744.59	41424.26
744.77	41213.32
744.96	41436.55
745.14	41485.70
745.33	41325.96
745.51	40996.24
745.70	41223.56
745.88	41039.25
746.07	41188.75
746.26	40928.66
746.44	40969.61
746.63	40742.29
746.81	41223.56
747.00	40537.49
747.18	41117.07
747.37	41086.35
747.55	41035.15
747.74	41164.17
747.92	41149.84
748.11	41008.53
748.29	40848.78
748.48	40924.56
748.66	40418.71
748.85	40881.55
749.03	40797.59
749.22	40918.42
749.41	40664.47
749.59	40572.31
749.78	40314.26
749.96	40363.42
750.15	40580.50
750.33	40517.01
750.52	40387.99
750.70	40203.67
750.89	40150.43
751.07	39851.42
751.26	39949.73
751.44	40050.08
751.63	40168.86
751.81	40064.41
752.00	40011.17
752.18	39908.77
752.37	40062.36
752.55	39789.98
752.74	39806.37
752.92	39605.67
753.10	39480.74
753.29	39638.44
753.47	39771.55
753.66	39394.73
753.84	39589.28
754.03	39568.80
754.21	39429.54
754.40	39529.89
754.58	39255.46
754.77	39230.89
754.95	39298.47
755.14	39445.93
755.32	39271.85
755.51	38993.32
755.69	39243.18
755.88	39179.69
756.06	39237.03
756.24	39198.12
756.43	39132.59
756.61	39087.53
756.80	39093.68
756.98	38714.80
757.17	38997.42
757.35	38821.30
757.54	38561.20
757.72	38976.94
757.90	38895.02
758.09	38593.97
758.27	38538.68
758.46	38221.24
758.64	38634.93
758.83	38835.63
759.01	38913.45
759.19	38278.58
759.38	38679.99
759.56	38559.16
759.75	38356.41
759.93	38419.89
760.12	38467.00
760.30	38129.08
760.48	38352.31
760.67	38241.72
760.85	38258.10
761.04	38458.81
761.22	37840.32
761.40	38141.37
761.59	38135.23
761.77	37860.80
761.96	37608.90
762.14	38133.18
762.32	37598.66
762.51	37410.25
762.69	37494.21
762.88	37631.43
763.06	37764.54
763.24	37701.06
763.43	37731.78
763.61	37479.88
763.80	37426.63
763.98	37217.74
764.16	37420.48
764.35	37412.29
764.53	37197.26
764.72	37127.63
764.90	37025.23
765.08	37266.89
765.27	36986.32
765.45	36683.22
765.63	36640.21
765.82	37012.94
766.00	36556.24
766.18	36830.67
766.37	36863.44
766.55	36615.63
766.74	36765.14
766.92	36601.30
767.10	36701.65
767.29	36591.06
767.47	36677.07
767.65	36779.47
767.84	36261.33
768.02	36503.00
768.20	36134.36
768.39	36439.51
768.57	36351.45
768.75	36273.62
768.94	36271.57
769.12	36322.77
769.30	36066.78
769.49	35999.19
769.67	35782.11
769.85	35345.89
770.04	36060.63
770.22	35735.01
770.40	35532.26
770.59	35442.15
770.77	36040.15
770.95	35775.97
771.14	35743.20
771.32	35761.63
771.50	35354.08
771.69	35177.96
771.87	35712.48
772.05	35376.61
772.24	34948.59
772.42	35120.62
772.60	35382.76
772.78	35251.69
772.97	34891.24
773.15	35333.60
773.33	35243.49
773.52	35046.89
773.70	35255.78
773.88	35284.45
774.07	34944.49
774.25	35065.32
774.43	35161.58
774.61	34772.46
774.80	35380.71
774.98	35608.03
775.16	35110.38
775.34	34868.72
775.53	34919.92
775.71	35124.71
775.89	35134.95
776.08	34960.87
776.26	35171.82
776.44	34950.63
776.62	34964.97
776.81	34993.64
776.99	35364.32
777.17	34731.50
777.35	34893.29
777.54	35173.86
777.72	35159.53
777.90	35085.80
778.08	35597.79
778.27	35012.07
778.45	35272.17
778.63	35546.59
778.81	35253.73
779.00	35565.03
779.18	35583.46
779.36	35349.99
779.54	35126.76
779.73	35128.81
779.91	35493.35
780.09	35485.15
780.27	35526.11
780.46	35440.10
780.64	36044.25
780.82	35321.32
781.00	35626.46
781.19	35751.39
781.37	35829.21
781.55	35235.30
781.73	35786.21
781.91	35468.77
782.10	35499.49
782.28	35296.74
782.46	35489.25
782.64	35560.93
782.82	35227.11
783.01	35366.37
783.19	35585.50
783.37	35419.62
783.55	35530.21
783.74	35501.54
783.92	35448.29
784.10	35835.36
784.28	35624.42
784.46	35479.01
784.64	35659.23
784.83	35358.18
785.01	35462.63
785.19	35429.86
785.37	35585.50
785.55	35507.68
785.74	35223.01
785.92	35155.43
786.10	35278.31
786.28	35501.54
786.46	35237.35
786.64	34862.57
786.83	34958.83
787.01	34766.32
787.19	35077.61
787.37	34852.33
787.55	34469.36
787.74	34725.36
787.92	34256.37
788.10	34934.25
788.28	34760.17
788.46	34588.14
788.64	34291.19
788.82	34596.34
789.01	34596.34
789.19	34559.47
789.37	34694.64
789.55	34305.52
789.73	34100.73
789.91	34287.09
790.09	34244.09
790.28	34338.29
790.46	34029.05
790.64	34272.76
790.82	34037.24
791.00	34014.71
791.18	33990.14
791.36	34178.55
791.55	33940.99
791.73	33574.40
791.91	33381.89
792.09	33465.86
792.27	33820.16
792.45	33883.64
792.63	33560.06
792.81	33478.15
793.00	33705.47
793.18	33205.77
793.36	33066.50
793.54	33105.41
793.72	33029.64
793.90	33117.70
794.08	32806.41
794.26	32808.46
794.44	32761.36
794.62	32579.09
794.81	32794.12
794.99	32880.14
795.17	32261.65
795.35	32349.71
795.53	32415.25
795.71	32597.52
795.89	32157.21
796.07	31637.02
796.25	31991.32
796.43	31788.57
796.61	31577.63
796.80	31350.31
796.98	31561.25
797.16	31342.11
797.34	31538.72
797.52	31632.93
797.70	31639.07
797.88	31401.50
798.06	31151.65
798.24	31567.39
798.42	31553.05
798.60	31229.48
798.78	30744.11
798.96	31272.48
799.14	30953.00
799.32	30692.91
799.51	30619.18
799.69	30926.38
799.87	31215.14
800.05	30326.32
800.23	30733.87
800.41	30684.72
800.59	30742.06
800.77	30099.00
800.95	30307.89
801.13	30682.67
801.31	30293.55
801.49	30260.79
801.67	30086.71
801.85	30096.95
802.03	29931.06
802.21	29664.83
802.39	29638.20
802.57	29597.24
802.75	29472.32
802.93	29816.38
803.11	29582.91
803.29	29263.43
803.47	29204.03
803.65	29265.47
803.83	29380.16
804.01	29017.67
804.19	28802.63
804.37	29120.07
804.55	29081.16
804.73	28925.51
804.91	28917.32
805.09	28800.58
805.27	28472.91
805.45	28870.22
805.63	28567.12
805.81	28565.07
805.99	28577.36
806.17	28491.34
806.35	28206.67
806.53	28347.98
806.71	28079.70
806.89	28085.84
807.07	27901.53
807.25	27985.49
807.43	27829.85
807.61	28227.15
807.79	28073.56
807.97	27752.02
808.15	27819.61
808.33	27450.97
808.51	27842.14
808.69	27756.12
808.87	27688.54
809.05	27340.38
809.23	27377.25
809.41	26848.87
809.59	27639.39
809.77	27149.92
809.95	27205.22
810.13	27272.80
810.31	27059.81
810.49	27213.41
810.67	26957.41
810.84	26863.21
811.02	26830.44
811.20	26498.67
811.38	26744.42
811.56	26660.46
811.74	26834.53
811.92	26691.18
812.10	26291.82
812.28	26517.10
812.46	26451.56
812.64	26723.94
812.82	25980.53
813.00	26222.19
813.18	26254.96
813.36	26037.87
813.53	25900.66
813.71	26082.93
813.89	25849.46
814.07	26236.53
814.25	25726.58
814.43	25908.85
814.61	25570.94
814.79	25405.05
814.97	25628.28
815.15	25736.82
815.33	25478.78
815.50	25554.55
815.68	25708.15
815.86	25566.84
816.04	25396.86
816.22	25226.88
816.40	25413.24
816.58	25362.04
816.76	25011.84
816.94	25075.33
817.11	24931.97
817.29	25179.78
817.47	25185.92
817.65	24798.85
817.83	25017.99
818.01	24567.43
818.19	24639.11
818.37	24532.62
818.54	24583.82
818.72	24385.16
818.90	24622.73
819.08	24428.17
819.26	24350.35
819.44	24432.27
819.62	24686.22
819.80	24438.41
819.97	24387.21
820.15	24141.46
820.33	24211.09
820.51	24395.40
820.69	23905.94
820.87	24485.51
821.05	24209.04
821.22	24034.96
821.40	24057.49
821.58	24047.25
821.76	23895.70
821.94	23852.69
822.12	23967.38
822.29	23832.21
822.47	23932.56
822.65	24063.63
822.83	23903.89
823.01	23551.64
823.19	23703.19
823.36	23750.29
823.54	23426.71
823.72	23156.38
823.90	23418.52
824.08	23326.36
824.25	23549.59
824.43	23512.73
824.61	23336.60
824.79	23346.84
824.97	23013.02
825.15	23477.91
825.32	23107.23
825.50	23090.85
825.68	23066.27
825.86	23336.60
826.04	23160.48
826.21	23176.86
826.39	22986.40
826.57	23131.81
826.75	22785.70
826.93	22916.77
827.10	22812.32
827.28	22773.41
827.46	22822.56
827.64	22851.24
827.81	22431.40
827.99	22703.78
828.17	22533.80
828.35	22372.01
828.53	22300.33
828.70	22640.29
828.88	22582.95
829.06	22625.96
829.24	22587.05
829.41	22474.41
829.59	22640.29
829.77	22007.47
829.95	22193.84
830.12	22316.72
830.30	22242.99
830.48	22318.76
830.66	22298.28
830.84	22265.52
831.01	22122.16
831.19	22197.93
831.37	21749.43
831.55	21864.11
831.72	22107.82
831.90	22159.02
832.08	21835.44
832.25	21974.70
832.43	21886.64
832.61	21839.54
832.79	21663.41
832.96	21513.91
833.14	21659.32
833.32	21986.99
833.50	21759.67
833.67	21649.08
833.85	21624.50
834.03	21415.61
834.20	21438.14
834.38	21329.59
834.56	21403.32
834.74	21096.13
834.91	21360.31
835.09	21352.12
835.27	21020.35
835.44	21268.16
835.62	21176.00
835.80	21149.37
835.98	21194.43
836.15	21040.83
836.33	20903.62
836.51	21188.28
836.68	20969.15
836.86	21130.94
837.04	21106.37
837.21	21001.92
837.39	20895.43
837.57	20862.66
837.75	21114.56
837.92	20725.44
838.10	21028.54
838.28	20852.42
838.45	20739.78
838.63	20719.30
838.81	20643.52
838.98	20297.42
839.16	20451.02
839.34	20332.23
839.51	20836.03
839.69	20360.91
839.87	20491.98
840.04	20115.15
840.22	20739.78
840.40	20426.44
840.57	20106.96
840.75	20461.26
840.93	20010.70
841.10	20342.47
841.28	20170.44
841.46	20321.99
841.63	20268.75
841.81	20229.84
841.98	20383.43
842.16	20111.05
842.34	20256.46
842.51	19771.09
842.69	20186.83
842.87	19963.60
843.04	20117.20
843.22	19824.34
843.40	19963.60
843.57	19869.39
843.75	19953.36
843.92	19879.63
844.10	19828.43
844.28	19824.34
844.45	19578.58
844.63	19424.98
844.81	19570.39
844.98	19584.73
845.16	19494.61
845.33	19590.87
845.51	19680.98
845.69	19597.01
845.86	19539.67
846.04	19734.23
846.21	19441.37
846.39	19539.67
846.57	19320.54
846.74	19121.88
846.92	19103.45
847.09	19302.11
847.27	19265.24
847.45	19015.39
847.62	19201.76
847.80	19316.44
847.97	19240.67
848.15	19162.84
848.32	18992.86
848.50	19062.49
848.68	18816.74
848.85	19123.93
849.03	18829.02
849.20	18996.96
849.38	19087.07
849.56	18880.22
849.73	18822.88
849.91	18857.70
850.08	18841.31
850.26	18566.88
850.43	18720.48
850.61	18601.70
850.78	18540.26
850.96	18732.77
851.14	18423.53
851.31	18794.21
851.49	18495.21
851.66	18628.32
851.84	18626.28
852.01	18595.56
852.19	18806.50
852.36	18562.79
852.54	18499.30
852.71	18386.66
852.89	18613.99
853.07	18538.21
853.24	18306.79
853.42	18046.70
853.59	18267.88
853.77	18364.14
853.94	18132.72
854.12	18157.29
854.29	18052.84
854.47	18323.18
854.64	18161.39
854.82	18237.16
854.99	18276.07
855.17	17759.98
855.34	17932.01
855.52	18085.61
855.69	18212.59
855.87	17917.68
856.04	17659.63
856.22	17872.62
856.39	17782.51
856.57	17987.31
856.74	17645.30
856.92	17794.80
857.09	17708.79
857.27	17882.86
857.44	17843.95
857.62	17762.03
857.79	17471.22
857.97	17704.69
858.14	17520.37
858.32	17506.04
858.49	17723.12
858.67	17520.37
858.84	17489.65
859.02	17397.49
859.19	17395.45
859.37	17440.50
859.54	17317.62
859.72	17499.89
859.89	17424.12
860.06	17336.06
860.24	17311.48
860.41	17387.25
860.59	17200.89
860.76	17350.39
860.94	17004.28
861.11	17178.36
861.29	17196.79
861.46	17133.31
861.64	17118.97
861.81	17159.93
861.98	17200.89
862.16	16981.76
862.33	16727.81
862.51	16740.10
862.68	16756.48
862.86	16848.64
863.03	16727.81
863.21	16664.32
863.38	16940.80
863.55	16932.61
863.73	16746.24
863.90	16799.49
864.08	16844.54
864.25	16371.46
864.43	16690.95
864.60	16535.30
864.77	16363.27
864.95	16492.29
865.12	16348.93
865.30	16645.89
865.47	16439.05
865.64	16326.41
865.82	16285.45
865.99	16545.54
866.17	16410.37
866.34	16267.02
866.51	16570.12
866.69	16469.76
866.86	16181.00
867.04	16164.62
867.21	16260.87
867.38	16000.78
867.56	15953.68
867.73	16037.64
867.91	15822.61
868.08	15812.37
868.25	16090.89
868.43	15806.22
868.60	16033.55
868.78	15640.34
868.95	15947.53
869.12	15716.11
869.30	15855.37
869.47	15963.92
869.64	15693.58
869.82	15816.46
869.99	15664.91
870.16	15673.10
870.34	15677.20
870.51	15783.70
870.69	15433.49
870.86	15652.63
871.03	15697.68
871.21	15574.80
871.38	15513.36
871.55	15394.58
871.73	15202.07
871.90	15488.79
872.07	15333.14
872.25	14935.84
872.42	15339.29
872.59	15310.61
872.77	15251.22
872.94	15079.19
873.11	15183.64
873.29	14939.93
873.46	15003.42
873.63	14954.27
873.81	15073.05
873.98	14739.23
874.15	14753.57
874.33	14761.76
874.50	14786.33
874.67	14896.92
874.85	14645.02
875.02	14473.00
875.19	14595.87
875.37	14665.50
875.54	14520.10
875.71	14645.02
875.88	14272.29
876.06	14710.56
876.23	14634.78
876.40	14307.11
876.58	14313.25
876.75	14331.69
876.92	14253.86
877.10	14255.91
877.27	14272.29
877.44	14188.33
877.61	14034.73
877.79	13932.33
877.96	14036.78
878.13	14149.42
878.31	14036.78
878.48	13985.58
878.65	13682.48
878.82	13801.26
879.00	13784.88
879.17	13952.81
879.34	13836.08
879.51	13760.30
879.69	13623.09
879.86	13887.28
880.03	13856.56
880.21	13469.49
880.38	13717.29
880.55	13666.10
880.72	13739.82
880.90	13713.20
881.07	13651.76
881.24	13682.48
881.41	13621.04
881.59	13569.84
881.76	13653.81
881.93	13430.58
882.10	13502.26
882.28	13367.09
882.45	13612.85
882.62	13363.00
882.79	13504.31
882.96	13268.79
883.14	13653.81
883.31	13342.52
883.48	13403.96
883.65	13322.04
883.83	13479.73
884.00	13158.20
884.17	13211.45
884.34	13293.37
884.51	13182.77
884.69	13256.50
884.86	13068.09
885.03	13311.80
885.20	13289.27
885.38	13205.30
885.55	13029.18
885.72	13115.19
885.89	13203.25
886.06	12998.46
886.24	13199.16
886.41	13131.58
886.58	13299.51
886.75	13293.37
886.92	13066.04
887.10	13164.34
887.27	13031.23
887.44	13037.37
887.61	13238.07
887.78	12967.74
887.95	12996.41
888.13	12801.85
888.30	12932.92
888.47	12724.03
888.64	12980.03
888.81	12676.93
888.99	12789.56
889.16	12764.99
889.33	12738.37
889.50	12388.16
889.67	12572.48
889.84	12498.75
890.01	12490.56
890.19	12488.51
890.36	12560.19
890.53	12640.06
890.70	12527.42
890.87	12668.73
891.04	12611.39
891.22	12390.21
891.39	12482.37
891.56	12490.56
891.73	12230.47
891.90	12392.26
892.07	12382.02
892.24	12365.64
892.42	12209.99
892.59	12330.82
892.76	12386.12
892.93	12334.92
893.10	12300.10
893.27	12193.61
893.44	12119.88
893.61	12044.10
893.79	12435.27
893.96	12287.81
894.13	12377.92
894.30	12201.80
894.47	12148.55
894.64	12117.83
894.81	12263.24
894.98	12308.29
895.15	11888.46
895.33	11974.47
895.50	11972.43
895.67	12306.24
895.84	12246.85
896.01	12076.87
896.18	12076.87
896.35	11994.95
896.52	12298.05
896.69	12115.78
896.86	11994.95
897.04	12074.82
897.21	12025.67
897.38	11882.31
897.55	12138.31
897.72	12093.26
897.89	11806.54
898.06	12035.91
898.23	12080.97
898.40	11925.32
898.57	11921.23
898.74	12101.45
898.91	12117.83
899.08	12048.20
899.26	12074.82
899.43	11913.03
899.60	11888.46
899.77	11962.19
899.94	11999.05
900.11	11798.35
900.28	11872.07
900.45	11738.96
900.62	11876.17
900.79	11904.84
900.96	11951.95
901.13	12035.91
901.30	11700.05
901.47	11607.89
901.64	12040.01
901.81	11820.88
901.98	11843.40
902.15	11689.81
902.32	11792.20
902.49	11980.62
902.66	11669.33
902.83	11781.96
903.01	11689.81
903.18	11833.16
903.35	11833.16
903.52	11677.52
903.69	11614.03
903.86	11759.44
904.03	11794.25
904.20	11685.71
904.37	11992.90
904.54	11851.60
904.71	11730.76
904.88	11835.21
905.05	11812.68
905.22	11876.17
905.39	11568.98
905.56	11878.22
905.73	11667.28
905.90	11769.68
906.07	11698.00
906.24	11605.84
906.41	11757.39
906.58	11790.16
906.75	11523.92
906.92	11646.80
907.09	11675.47
907.26	11693.90
907.43	11503.44
907.60	11618.13
907.77	11837.26
907.93	11685.71
908.10	11534.16
908.27	11661.13
908.44	11554.64
908.61	11435.86
908.78	11454.29
908.95	11683.66
909.12	11333.46
909.29	11423.57
909.46	11403.09
909.63	11544.40
909.80	11577.17
909.97	11476.82
910.14	11360.08
910.31	11489.10
910.48	11450.19
910.65	11407.19
910.82	11419.47
910.99	11446.10
911.16	11382.61
911.33	11507.54
911.50	11446.10
911.66	11331.41
911.83	11200.34
912.00	11186.01
912.17	11151.19
912.34	11231.06
912.51	11290.45
912.68	11108.18
912.85	11214.68
913.02	11233.11
913.19	11208.53
913.36	11050.84
913.53	11110.23
913.70	11089.75
913.86	11155.29
914.03	11030.36
914.20	11044.70
914.37	10944.34
914.54	11001.69
914.71	10936.15
914.88	11085.65
915.05	11018.07
915.22	10989.40
915.39	10921.82
915.55	10923.87
915.72	10837.85
915.89	10911.58
916.06	10780.51
916.23	10643.29
916.40	10772.32
916.57	10618.72
916.74	10622.81
916.91	10772.32
917.07	10497.89
917.24	10424.16
917.41	10723.16
917.58	10489.70
917.75	10403.68
917.92	10420.06
918.09	10481.50
918.26	10340.19
918.42	10489.70
918.59	10223.46
918.76	10379.11
918.93	10426.21
919.10	10252.13
919.27	10198.88
919.44	10219.36
919.60	10090.34
919.77	10188.64
919.94	10057.57
920.11	9930.60
920.28	10102.63
920.45	9961.32
920.61	9887.59
920.78	9971.56
920.95	9873.26
921.12	9844.59
921.29	9697.13
921.46	9772.91
921.62	9824.11
921.79	9684.84
921.96	9701.23
922.13	9635.69
922.30	9602.93
922.47	9523.05
922.63	9434.99
922.80	9512.81
922.97	9559.92
923.14	9553.77
923.31	9441.14
923.47	9310.07
923.64	9582.45
923.81	9439.09
923.98	9418.61
924.15	9228.15
924.32	9316.21
924.48	9232.24
924.65	9342.83
924.82	8992.63
924.99	9160.56
925.15	8914.81
925.32	9029.49
925.49	8970.10
925.66	8873.85
925.83	8857.46
925.99	8959.86
926.16	8689.53
926.33	8904.57
926.50	8740.73
926.67	8757.11
926.83	8765.31
927.00	8753.02
927.17	8572.80
927.34	8580.99
927.50	8603.52
927.67	8648.57
927.84	8652.67
928.01	8656.76
928.17	8490.88
928.34	8488.83
928.51	8400.77
928.68	8255.36
928.84	8435.58
929.01	8253.31
929.18	8210.31
929.35	8365.95
929.51	8306.56
929.68	8232.83
929.85	8071.04
930.02	8230.79
930.18	8150.92
930.35	8062.85
930.52	8077.19
930.69	8050.57
930.85	7909.26
931.02	7987.08
931.19	7905.16
931.36	7800.71
931.52	7995.27
931.69	7878.54
931.86	7706.51
932.02	7550.86
932.19	7796.62
932.36	7626.64
932.53	7638.92
932.69	7569.29
932.86	7702.41
933.03	7446.41
933.19	7499.66
933.36	7380.88
933.53	7579.53
933.70	7307.15
933.86	7335.82
934.03	7356.30
934.20	7163.79
934.36	7184.27
934.53	7122.84
934.70	6887.32
934.86	6973.33
935.03	7122.84
935.20	7061.40
935.36	6768.54
935.53	6893.46
935.70	6762.39
935.86	6752.15
936.03	6813.59
936.20	6739.87
936.36	6852.50
936.53	6586.27
936.70	6653.85
936.86	6631.32
937.03	6479.77
937.20	6430.62
937.36	6332.32
937.53	6197.15
937.70	6227.87
937.86	6102.95
938.03	6184.87
938.20	6115.23
938.36	5978.02
938.53	5935.01
938.70	5789.61
938.86	5779.37
939.03	5730.22
939.20	5752.74
939.36	5664.68
939.53	5490.60
939.70	5640.11
939.86	5441.45
940.03	5246.90
940.19	5294.00
940.36	5257.14
940.53	5226.42
940.69	5232.56
940.86	5140.40
941.03	5097.39
941.19	5027.76
941.36	5056.43
941.52	5089.20
941.69	4978.61
941.86	4859.83
942.02	4843.45
942.19	4863.93
942.35	4794.29
942.52	4650.94
942.69	4638.65
942.85	4630.46
943.02	4665.27
943.18	4663.22
943.35	4646.84
943.52	4431.80
943.68	4521.92
943.85	4470.72
944.01	4474.81
944.18	4466.62
944.35	4362.17
944.51	4370.37
944.68	4370.37
944.84	4327.36
945.01	4483.00
945.17	4413.37
945.34	4427.71
945.51	4239.30
945.67	4446.14
945.84	4360.13
946.00	4198.34
946.17	4317.12
946.33	4194.24
946.50	4315.07
946.67	4138.94
946.83	4280.25
947.00	4124.61
947.16	4198.34
947.33	4237.25
947.49	4300.73
947.66	4239.30
947.82	4034.50
947.99	4202.43
948.16	4198.34
948.32	4192.19
948.49	4048.83
948.65	4208.58
948.82	4112.32
948.98	4278.21
949.15	4163.52
949.31	4136.90
949.48	4243.39
949.64	4181.95
949.81	4155.33
949.97	4138.94
950.14	4157.38
950.30	4190.14
950.47	4245.44
950.63	4120.51
950.80	4247.49
950.96	4202.43
951.13	4128.70
951.30	4108.23
951.46	4208.58
951.63	4304.83
951.79	4198.34
951.96	4403.13
952.12	4206.53
952.29	4237.25
952.45	4052.93
952.62	4167.62
952.78	4241.34
952.94	4218.82
953.11	4165.57
953.27	4233.15
953.44	4278.21
953.60	4259.78
953.77	4251.58
953.93	4251.58
954.10	4171.71
954.26	4304.83
954.43	4210.62
954.59	4276.16
954.76	4403.13
954.92	4317.12
955.09	4243.39
955.25	4204.48
955.42	4284.35
955.58	4290.49
955.75	4296.64
955.91	4282.30
956.07	4263.87
956.24	4200.38
956.40	4206.53
956.57	4247.49
956.73	4147.14
956.90	4296.64
957.06	4210.62
957.23	4339.65
957.39	4143.04
957.56	4306.88
957.72	4272.06
957.88	4288.45
958.05	4308.93
958.21	4343.74
958.38	4306.88
958.54	4304.83
958.71	4337.60
958.87	4284.35
959.03	4294.59
959.20	4335.55
959.36	4229.06
959.53	4329.41
959.69	4149.18
959.85	4401.08
960.02	4200.38
960.18	4220.86
960.35	4231.10
960.51	4286.40
960.68	4263.87
960.84	4216.77
961.00	4272.06
961.17	4263.87
961.33	4392.89
961.50	4380.61
961.66	4253.63
961.82	4306.88
961.99	4337.60
962.15	4175.81
962.31	4337.60
962.48	4374.46
962.64	4253.63
962.81	4110.27
962.97	4327.36
963.13	4261.82
963.30	4198.34
963.46	4224.96
963.62	4243.39
963.79	4171.71
963.95	4403.13
964.12	4071.36
964.28	4251.58
964.44	4130.75
964.61	4274.11
964.77	4294.59
964.93	4233.15
965.10	4147.14
965.26	4247.49
965.42	4151.23
965.59	4153.28
965.75	4169.66
965.92	4138.94
966.08	4218.82
966.24	4272.06
966.41	4106.18
966.57	4130.75
966.73	4159.42
966.90	4081.60
967.06	4093.89
967.22	4054.98
967.39	4009.92
967.55	4110.27
967.71	4016.07
967.88	4085.70
968.04	4007.87
968.20	3985.35
968.37	4059.07
968.53	3985.35
968.69	4048.83
968.85	4026.31
969.02	4018.11
969.18	4005.83
969.34	4163.52
969.51	4005.83
969.67	4057.03
969.83	3928.00
970.00	3962.82
970.16	4026.31
970.32	3962.82
970.48	3856.33
970.65	4014.02
970.81	3909.57
970.97	4087.75
971.14	3872.71
971.30	4026.31
971.46	3823.56
971.63	3936.20
971.79	3938.24
971.95	3864.52
972.11	3897.28
972.28	3915.72
972.44	3930.05
972.60	3823.56
972.76	3913.67
972.93	3866.56
973.09	3798.98
973.25	3856.33
973.42	3905.48
973.58	3776.45
973.74	3921.86
973.90	3790.79
974.07	3817.41
974.23	3909.57
974.39	3794.89
974.55	3870.66
974.72	3919.81
974.88	3774.41
975.04	3837.89
975.20	3762.12
975.37	3762.12
975.53	3811.27
975.69	3649.48
975.85	3692.49
976.01	3751.88
976.18	3735.50
976.34	3700.68
976.50	3751.88
976.66	3760.07
976.83	3702.73
976.99	3715.02
977.15	3672.01
977.31	3579.85
977.47	3702.73
977.64	3626.95
977.80	3684.30
977.96	3629.00
978.12	3651.53
978.29	3534.79
978.45	3721.16
978.61	3540.94
978.77	3626.95
978.93	3606.47
979.10	3639.24
979.26	3649.48
979.42	3512.27
979.58	3547.08
979.74	3528.65
979.91	3649.48
980.07	3512.27
980.23	3518.41
980.39	3497.93
980.55	3549.13
980.71	3442.64
980.88	3516.36
981.04	3612.62
981.20	3530.70
981.36	3422.16
981.52	3499.98
981.68	3395.53
981.85	3405.77
982.01	3405.77
982.17	3448.78
982.33	3489.74
982.49	3442.64
982.65	3352.52
982.82	3426.25
982.98	3461.07
983.14	3291.09
983.30	3409.87
983.46	3483.59
983.62	3485.64
983.79	3362.76
983.95	3274.70
984.11	3266.51
984.27	3413.96
984.43	3293.13
984.59	3291.09
984.75	3336.14
984.91	3270.61
985.08	3313.61
985.24	3340.24
985.40	3266.51
985.56	3219.41
985.72	3307.47
985.88	3295.18
986.04	3145.68
986.20	3274.70
986.37	3207.12
986.53	3239.89
986.69	3256.27
986.85	3235.79
987.01	3102.67
987.17	3166.16
987.33	3162.06
987.49	3217.36
987.65	3133.39
987.82	3176.40
987.98	3219.41
988.14	3166.16
988.30	3162.06
988.46	3190.74
988.62	3237.84
988.78	3155.92
988.94	3090.38
989.10	3063.76
989.26	3067.86
989.42	3174.35
989.59	3098.58
989.75	3121.10
989.91	3104.72
990.07	3016.66
990.23	2944.98
990.39	3063.76
990.55	3108.82
990.71	3053.52
990.87	3051.47
991.03	3069.91
991.19	2961.36
991.35	2906.07
991.51	3041.23
991.67	2967.51
991.83	2975.70
992.00	2899.92
992.16	2901.97
992.32	3006.42
992.48	3000.27
992.64	2947.03
992.80	2985.94
992.96	2944.98
993.12	3016.66
993.28	3041.23
993.44	2922.45
993.60	2838.48
993.76	2944.98
993.92	2942.93
994.08	2861.01
994.24	2891.73
994.40	2967.51
994.56	2865.11
994.72	2865.11
994.88	2848.72
995.04	2908.12
995.20	2854.87
995.36	2828.24
995.52	2838.48
995.68	2901.97
995.84	2744.28
996.00	2791.38
996.16	2809.81
996.32	2809.81
996.48	2744.28
996.64	2713.56
996.80	2795.48
996.96	2832.34
997.12	2682.84
997.28	2729.94
997.44	2682.84
997.60	2838.48
997.76	2736.09
997.92	2684.89
998.08	2742.23
998.24	2664.41
998.40	2684.89
998.56	2830.29
998.72	2684.89
998.88	2674.65
999.04	2709.46
999.20	2703.32
999.36	2656.22
999.52	2691.03
999.68	2666.46
999.84	2770.90
1000.00	2727.89
1000.16	2662.36
1000.32	2713.56
1000.48	2738.13
1000.64	2621.40
1000.80	2572.25
1000.95	2658.26
1001.11	2668.50
1001.27	2557.91
1001.43	2672.60
1001.59	2590.68
1001.75	2564.06
1001.91	2564.06
1002.07	2574.30
1002.23	2557.91
1002.39	2490.33
1002.55	2504.67
1002.71	2570.20
1002.87	2543.58
1003.03	2508.76
1003.19	2459.61
1003.34	2488.28
1003.50	2492.38
1003.66	2475.99
1003.82	2537.43
1003.98	2545.63
1004.14	2475.99
1004.30	2449.37
1004.46	2545.63
1004.62	2469.85
1004.78	2562.01
1004.94	2559.96
1005.09	2562.01
1005.25	2527.19
1005.41	2496.47
1005.57	2443.23
1005.73	2449.37
1005.89	2459.61
1006.05	2590.68
1006.21	2441.18
1006.37	2410.46
1006.52	2428.89
1006.68	2361.31
1006.84	2512.86
1007.00	2330.59
1007.16	2424.80
1007.32	2408.41
1007.48	2379.74
1007.64	2398.17
1007.79	2375.64
1007.95	2430.94
1008.11	2475.99
1008.27	2355.16
1008.43	2432.99
1008.59	2418.65
1008.75	2308.06
1008.91	2359.26
1009.06	2367.45
1009.22	2379.74
1009.38	2310.11
1009.54	2293.72
1009.70	2283.49
1009.86	2318.30
1010.01	2244.57
1010.17	2248.67
1010.33	2258.91
1010.49	2283.49
1010.65	2330.59
1010.81	2295.77
1010.96	2181.09
1011.12	2215.90
1011.28	2281.44
1011.44	2252.77
1011.60	2226.14
1011.76	2336.73
1011.91	2222.05
1012.07	2209.76
1012.23	2277.34
1012.39	2195.42
1012.55	2213.85
1012.71	2260.96
1012.86	2154.46
1013.02	2236.38
1013.18	2170.85
1013.34	2230.24
1013.50	2291.68
1013.65	2226.14
1013.81	2148.32
1013.97	2205.66
1014.13	2230.24
1014.29	2199.52
1014.44	2181.09
1014.60	2203.61
1014.76	2170.85
1014.92	2187.23
1015.07	2209.76
1015.23	2166.75
1015.39	2183.13
1015.55	2127.84
1015.71	2080.74
1015.86	2113.50
1016.02	2138.08
1016.18	2068.45
1016.34	2136.03
1016.49	2160.61
1016.65	2144.22
1016.81	2144.22
1016.97	2148.32
1017.12	2127.84
1017.28	2168.80
1017.44	2144.22
1017.60	2054.11
1017.75	2023.39
1017.91	2105.31
1018.07	2041.82
1018.23	2011.11
1018.38	2068.45
1018.54	2080.74
1018.70	2107.36
1018.86	2039.78
1019.01	1984.48
1019.17	2031.58
1019.33	2088.93
1019.49	2070.50
1019.64	1998.82
1019.80	2121.70
1019.96	2088.93
1020.12	2054.11
1020.27	1990.63
1020.43	2041.82
1020.59	2019.30
1020.74	2011.11
1020.90	2039.78
1021.06	1998.82
1021.22	2050.02
1021.37	1994.72
1021.53	2029.54
1021.69	2004.96
1021.84	2023.39
1022.00	1906.66
1022.16	1941.47
1022.31	1916.90
1022.47	1947.62
1022.63	1966.05
1022.79	1998.82
1022.94	1998.82
1023.10	2074.59
1023.26	2002.91
1023.41	1935.33
1023.57	2039.78
1023.73	1947.62
1023.88	1955.81
1024.04	1949.67
1024.20	1945.57
1024.35	1923.04
1024.51	1925.09
1024.67	1982.43
1024.82	1984.48
1024.98	1875.94
1025.14	1904.61
1025.29	1974.24
1025.45	1841.12
1025.61	1832.93
1025.76	1894.37
1025.92	1826.79
1026.08	1937.38
1026.23	1992.67
1026.39	1949.67
1026.55	1882.08
1026.70	1861.60
1026.86	1925.09
1027.02	1867.75
1027.17	1884.13
1027.33	1970.15
1027.48	1925.09
1027.64	1869.80
1027.80	1832.93
1027.95	1843.17
1028.11	1865.70
1028.27	1871.84
1028.42	1914.85
1028.58	1890.28
1028.73	1886.18
1028.89	1794.02
1029.05	1918.95
1029.20	1796.07
>>>>>End Processed Spectral Data<<<<<
