SpectraSuite Data File
++++++++++++++++++++++++++++++++++++
Date: Tue Jun 13 11:50:59 CEST 2017
User: INFO_000
Dark Spectrum Present: No
Reference Spectrum Present: No
Number of Sampled Component Spectra: 1
Spectrometers: USB4H00879
Integration Time (usec): 30000 (USB4H00879)
Spectra Averaged: 1 (USB4H00879)
Boxcar Smoothing: 0 (USB4H00879)
Correct for Electrical Dark: No (USB4H00879)
Strobe/Lamp Enabled: No (USB4H00879)
Correct for Detector Non-linearity: No (USB4H00879)
Correct for Stray Light: No (USB4H00879)
Number of Pixels in Processed Spectrum: 3648
>>>>>Begin Processed Spectral Data<<<<<
345.13	1308.65
345.34	1308.65
345.56	1308.65
345.78	1312.75
345.99	1263.60
346.21	1464.30
346.42	1449.96
346.64	1437.67
346.86	1458.15
347.07	1488.87
347.29	1511.40
347.50	1476.59
347.72	1499.11
347.94	1486.83
348.15	1515.50
348.37	1480.68
348.59	1490.92
348.80	1513.45
349.02	1708.01
349.23	1646.57
349.45	1546.22
349.67	1679.33
349.88	1628.14
350.10	1687.53
350.31	1632.23
350.53	1591.27
350.75	1732.58
350.96	1630.18
351.18	1669.09
351.39	1634.28
351.61	1597.42
351.82	1607.66
352.04	1679.33
352.26	1640.42
352.47	1693.67
352.69	1693.67
352.90	1564.65
353.12	1648.61
353.34	1675.24
353.55	1724.39
353.77	1630.18
353.98	1667.05
354.20	1562.60
354.41	1685.48
354.63	1652.71
354.85	1769.44
355.06	1716.20
355.28	1626.09
355.49	1701.86
355.71	1685.48
355.92	1681.38
356.14	1671.14
356.35	1685.48
356.57	1662.95
356.79	1667.05
357.00	1683.43
357.22	1726.44
357.43	1662.95
357.65	1732.58
357.86	1665.00
358.08	1712.10
358.29	1705.96
358.51	1767.40
358.72	1714.15
358.94	1720.29
359.16	1728.49
359.37	1652.71
359.59	1724.39
359.80	1746.92
360.02	1701.86
360.23	1759.21
360.45	1787.88
360.66	1746.92
360.88	1708.01
361.09	1720.29
361.31	1763.30
361.52	1740.77
361.74	1662.95
361.95	1800.16
362.17	1705.96
362.38	1800.16
362.60	1763.30
362.81	1730.53
363.03	1720.29
363.24	1812.45
363.46	1773.54
363.67	1748.97
363.89	1839.08
364.10	1781.73
364.32	1748.97
364.53	1863.65
364.75	1675.24
364.96	1783.78
365.18	1804.26
365.39	1689.57
365.61	1806.31
365.82	1837.03
366.04	1736.68
366.25	1841.12
366.47	1859.56
366.68	1859.56
366.90	1798.12
367.11	1832.93
367.33	1857.51
367.54	1853.41
367.76	1873.89
367.97	1877.99
368.19	1871.84
368.40	1859.56
368.62	1802.21
368.83	1787.88
369.05	1890.28
369.26	1763.30
369.48	1818.60
369.69	1787.88
369.91	1908.71
370.12	1765.35
370.33	1898.47
370.55	1785.83
370.76	1834.98
370.98	1822.69
371.19	1892.32
371.41	1841.12
371.62	1826.79
371.84	1857.51
372.05	1896.42
372.27	1839.08
372.48	1822.69
372.69	1908.71
372.91	1941.47
373.12	1974.24
373.34	1789.92
373.55	1927.14
373.77	1986.53
373.98	1972.19
374.20	1984.48
374.41	2025.44
374.62	1869.80
374.84	1896.42
375.05	1961.95
375.27	2056.16
375.48	1978.34
375.70	1951.71
375.91	1972.19
376.12	2062.30
376.34	1957.86
376.55	1961.95
376.77	1978.34
376.98	2015.20
377.19	1961.95
377.41	1906.66
377.62	1998.82
377.84	2093.02
378.05	2043.87
378.27	1974.24
378.48	2019.30
378.69	2164.70
378.91	2029.54
379.12	2000.87
379.34	2013.15
379.55	2144.22
379.76	2113.50
379.98	2160.61
380.19	1988.58
380.41	2068.45
380.62	2142.18
380.83	2101.22
381.05	2101.22
381.26	2209.76
381.47	2076.64
381.69	2072.54
381.90	2240.48
382.12	2103.26
382.33	2105.31
382.54	2144.22
382.76	2248.67
382.97	2133.98
383.19	2086.88
383.40	2162.66
383.61	2160.61
383.83	2263.01
384.04	2238.43
384.25	2129.89
384.47	2140.13
384.68	2306.01
384.89	2148.32
385.11	2179.04
385.32	2224.09
385.54	2176.99
385.75	2211.81
385.96	2291.68
386.18	2236.38
386.39	2279.39
386.60	2103.26
386.82	2373.60
387.03	2306.01
387.24	2279.39
387.46	2355.16
387.67	2295.77
387.88	2392.03
388.10	2402.27
388.31	2404.32
388.52	2418.65
388.74	2443.23
388.95	2441.18
389.16	2469.85
389.38	2416.60
389.59	2422.75
389.80	2439.13
390.02	2349.02
390.23	2420.70
390.44	2443.23
390.66	2488.28
390.87	2445.27
391.08	2525.15
391.30	2523.10
391.51	2496.47
391.72	2648.02
391.94	2453.47
392.15	2535.39
392.36	2529.24
392.58	2570.20
392.79	2564.06
393.00	2592.73
393.22	2676.70
393.43	2703.32
393.64	2619.35
393.85	2615.26
394.07	2658.26
394.28	2627.54
394.49	2672.60
394.71	2635.74
394.92	2686.94
395.13	2754.52
395.35	2723.80
395.56	2772.95
395.77	2688.98
395.98	2713.56
396.20	2772.95
396.41	2723.80
396.62	2852.82
396.84	2775.00
397.05	2863.06
397.26	2867.16
397.47	2887.64
397.69	2764.76
397.90	2914.26
398.11	2875.35
398.32	2863.06
398.54	2848.72
398.75	2842.58
398.96	2901.97
399.18	2949.08
399.39	2901.97
399.60	3153.87
399.81	2924.50
400.03	3004.37
400.24	3143.63
400.45	2936.79
400.66	3033.04
400.88	3110.86
401.09	3092.43
401.30	3057.62
401.51	3033.04
401.73	3203.02
401.94	3043.28
402.15	3061.71
402.36	3065.81
402.58	3186.64
402.79	3131.34
403.00	3086.29
403.21	3270.61
403.43	3174.35
403.64	3266.51
403.85	3194.83
404.06	3231.69
404.27	3112.91
404.49	3215.31
404.70	3170.26
404.91	3280.85
405.12	3350.48
405.34	3186.64
405.55	3278.80
405.76	3299.28
405.97	3291.09
406.19	3483.59
406.40	3366.86
406.61	3346.38
406.82	3438.54
407.03	3375.05
407.25	3313.61
407.46	3395.53
407.67	3473.36
407.88	3426.25
408.09	3504.07
408.31	3407.82
408.52	3497.93
408.73	3422.16
408.94	3366.86
409.15	3444.68
409.37	3493.83
409.58	3510.22
409.79	3553.23
410.00	3555.27
410.21	3538.89
410.43	3465.16
410.64	3618.76
410.85	3571.66
411.06	3620.81
411.27	3622.86
411.48	3708.87
411.70	3672.01
411.91	3784.65
412.12	3788.74
412.33	3596.23
412.54	3729.35
412.76	3790.79
412.97	3764.17
413.18	3665.86
413.39	3762.12
413.60	3676.10
413.81	3747.78
414.03	3780.55
414.24	3893.19
414.45	3880.90
414.66	3819.46
414.87	3887.04
415.08	3747.78
415.30	3801.03
415.51	3919.81
415.72	3911.62
415.93	3841.99
416.14	3993.54
416.35	4034.50
416.56	3954.63
416.78	4155.33
416.99	4016.07
417.20	4032.45
417.41	4003.78
417.62	4085.70
417.83	4054.98
418.04	4089.79
418.26	3973.06
418.47	4132.80
418.68	4257.73
418.89	4124.61
419.10	4347.84
419.31	4229.06
419.52	4134.85
419.73	4188.10
419.95	4212.67
420.16	4194.24
420.37	4206.53
420.58	4370.37
420.79	4364.22
421.00	4407.23
421.21	4554.68
421.42	4378.56
421.63	4267.97
421.85	4274.11
422.06	4532.15
422.27	4411.32
422.48	4433.85
422.69	4630.46
422.90	4614.07
423.11	4517.82
423.32	4546.49
423.53	4618.17
423.75	4755.38
423.96	4708.28
424.17	4720.57
424.38	4691.90
424.59	4775.86
424.80	4820.92
425.01	4876.21
425.22	4882.36
425.43	4691.90
425.64	5074.87
425.85	5027.76
426.06	4917.17
426.28	5040.05
426.49	4849.59
426.70	4951.99
426.91	5056.43
427.12	4992.95
427.33	5113.78
427.54	5029.81
427.75	5091.25
427.96	5162.93
428.17	5013.43
428.38	5214.13
428.59	5316.53
428.80	5185.46
429.01	5361.58
429.23	5277.62
429.44	5582.76
429.65	5402.54
429.86	5472.17
430.07	5283.76
430.28	5525.42
430.49	5453.74
430.70	5533.61
430.91	5547.95
431.12	5576.62
431.33	5691.31
431.54	5543.85
431.75	5633.96
431.96	5506.99
432.17	5439.40
432.38	5490.60
432.59	5869.48
432.80	5701.54
433.01	5978.02
433.22	5967.78
433.43	5801.90
433.64	5697.45
433.85	5719.98
434.06	5988.26
434.27	5869.48
434.49	6033.32
434.70	6102.95
434.91	6029.22
435.12	5910.44
435.33	6127.52
435.54	6152.10
435.75	5892.01
435.96	5853.09
436.17	5994.40
436.38	6191.01
436.59	6201.25
436.80	6104.99
437.01	6311.84
437.22	6324.13
437.43	6324.13
437.64	6137.76
437.85	6250.40
438.06	6457.25
438.27	6184.87
438.48	6299.55
438.69	6535.07
438.90	6533.02
439.11	6408.09
439.32	6543.26
439.53	6524.83
439.74	6578.08
439.95	6729.63
440.16	6444.96
440.37	6584.22
440.57	6518.68
440.78	6582.17
440.99	6696.86
441.20	6707.10
441.41	6553.50
441.62	6741.91
441.83	6576.03
442.04	7131.03
442.25	6768.54
442.46	6864.79
442.67	7171.99
442.88	7374.74
443.09	6834.07
443.30	6920.09
443.51	7004.05
443.72	7335.82
443.93	6901.65
444.14	7270.29
444.35	7020.44
444.56	7258.00
444.77	7180.18
444.98	7165.84
445.19	7135.12
445.40	7243.67
445.61	7274.38
445.81	7466.89
446.02	7217.04
446.23	7341.97
446.44	7165.84
446.65	7434.13
446.86	7409.55
447.07	7366.54
447.28	7610.25
447.49	7614.35
447.70	7413.65
447.91	7557.00
448.12	7634.83
448.33	7626.64
448.54	7710.60
448.74	7661.45
448.95	7546.76
449.16	7485.33
449.37	7911.30
449.58	7683.98
449.79	8001.41
450.00	7813.00
450.21	7833.48
450.42	7944.07
450.63	8044.42
450.84	7911.30
451.05	7907.21
451.25	8023.94
451.46	8028.04
451.67	8122.24
451.88	8243.07
452.09	8261.51
452.30	8120.20
452.51	8228.74
452.72	8148.87
452.93	8474.49
453.13	8349.57
453.34	8374.14
453.55	8353.66
453.76	8437.63
453.97	8705.92
454.18	8540.03
454.39	8757.11
454.60	8628.09
454.81	8570.75
455.01	8882.04
455.22	8564.61
455.43	8847.22
455.64	8961.91
455.85	9029.49
456.06	9150.32
456.27	8972.15
456.48	9086.84
456.68	9240.44
456.89	9029.49
457.10	9363.31
457.31	9271.15
457.52	9013.11
457.73	9215.86
457.94	9492.34
458.14	9338.74
458.35	9576.30
458.56	9432.94
458.77	9428.85
458.98	9625.45
459.19	9514.86
459.39	9588.59
459.60	9828.20
459.81	9828.20
460.02	9785.19
460.23	9707.37
460.44	10131.30
460.65	10041.19
460.85	10100.58
461.06	10219.36
461.27	9926.50
461.48	10370.91
461.69	10493.79
461.89	9881.45
462.10	10338.15
462.31	10129.25
462.52	10350.43
462.73	10360.67
462.94	10823.51
463.14	10600.29
463.35	10604.38
463.56	10934.11
463.77	10878.81
463.98	10555.23
464.18	10762.08
464.39	11056.98
464.60	11083.61
464.81	11347.79
465.02	11183.96
465.23	11398.99
465.43	11136.85
465.64	11458.39
465.85	11474.77
466.06	11280.21
466.27	11896.65
466.47	11675.47
466.68	11867.98
466.89	11800.40
467.10	11951.95
467.30	11620.17
467.51	11712.33
467.72	12298.05
467.93	11962.19
468.14	12107.59
468.34	11999.05
468.55	12463.94
468.76	12498.75
468.97	12359.49
469.17	12486.47
469.38	12474.18
469.59	12973.88
469.80	12656.45
470.01	12576.58
470.21	12840.76
470.42	13053.75
470.63	13244.21
470.84	13121.34
471.04	13063.99
471.25	13262.65
471.46	13469.49
471.67	13469.49
471.87	13719.34
472.08	13719.34
472.29	13702.96
472.50	13414.20
472.70	13596.46
472.91	13758.25
473.12	14075.69
473.33	14243.62
473.53	14243.62
473.74	14225.19
473.95	14372.64
474.16	14550.82
474.36	14466.85
474.57	14847.77
474.78	14939.93
474.99	14731.04
475.19	14626.59
475.40	15054.62
475.61	15173.40
475.81	15415.06
476.02	15494.93
476.23	15161.11
476.44	15703.82
476.64	15763.22
476.85	15988.49
477.06	16049.93
477.27	16084.75
477.47	16228.10
477.68	16101.13
477.89	16615.17
478.09	16443.14
478.30	16561.92
478.51	16809.73
478.71	16860.93
478.92	16938.75
479.13	16867.07
479.34	17270.52
479.54	17211.13
479.75	17276.66
479.96	17334.01
480.16	17506.04
480.37	17587.96
480.58	17925.87
480.78	17934.06
480.99	17934.06
481.20	17981.17
481.41	18104.04
481.61	18353.90
481.82	18462.44
482.03	18597.60
482.23	18646.76
482.44	18910.94
482.65	18919.14
482.85	19105.50
483.06	19101.40
483.27	18994.91
483.47	18933.47
483.68	19250.91
483.89	19554.01
484.09	19416.79
484.30	19680.98
484.51	19896.02
484.71	20233.93
484.92	20109.01
485.13	20352.71
485.33	20477.64
485.54	20274.89
485.75	20676.29
485.95	20569.80
486.16	20403.91
486.37	20786.88
486.57	20760.26
486.78	20930.24
486.98	21100.22
487.19	21343.93
487.40	21563.06
487.60	21388.99
487.81	21870.26
488.02	21694.13
488.22	21653.17
488.43	21659.32
488.64	21980.85
488.84	22208.17
489.05	22185.65
489.25	21999.28
489.46	22822.56
489.67	22597.29
489.87	22750.88
490.08	22908.58
490.29	23068.32
490.49	23488.15
490.70	23148.19
490.90	23447.19
491.11	23453.34
491.32	23453.34
491.52	23533.21
491.73	23576.22
491.94	23807.64
492.14	23664.28
492.35	24241.81
492.55	24010.39
492.76	24131.22
492.97	24477.32
493.17	24219.28
493.38	24546.95
493.58	24712.84
493.79	24714.89
494.00	24575.62
494.20	24790.66
494.41	24727.17
494.61	25562.75
494.82	25044.61
495.02	25071.23
495.23	25245.31
495.44	25652.86
495.64	25560.70
495.85	25663.10
496.05	25781.88
496.26	25800.31
496.47	26117.75
496.67	25996.92
496.88	26293.87
497.08	26216.05
497.29	26508.91
497.49	26314.35
497.70	26381.93
497.91	26588.78
498.11	27037.28
498.32	26898.02
498.52	26938.98
498.73	27469.40
498.93	27168.35
499.14	26981.99
499.34	27383.39
499.55	27559.52
499.76	27172.45
499.96	27580.00
500.17	27569.76
500.37	27584.09
500.58	27850.33
500.78	27835.99
500.99	27960.92
501.19	28239.44
501.40	28083.80
501.60	27960.92
501.81	28091.99
502.02	28532.30
502.22	28112.47
502.43	28831.30
502.63	28542.54
502.84	29058.63
503.04	29011.53
503.25	28507.72
503.45	28792.39
503.66	29316.67
503.86	28819.02
504.07	29326.91
504.27	29132.36
504.48	29804.09
504.68	29419.07
504.89	29875.77
505.09	30010.93
505.30	29806.14
505.50	29677.12
505.71	29525.57
505.91	30006.84
506.12	30029.37
506.32	29830.71
506.53	30172.72
506.73	30346.80
506.94	30174.77
507.14	30379.57
507.35	30613.04
507.55	30684.72
507.76	30584.37
507.96	30320.18
508.17	30559.79
508.37	30516.78
508.58	30754.35
508.78	30973.48
508.99	30887.46
509.19	31200.80
509.40	30801.45
509.60	31241.76
509.81	30971.43
510.01	31129.12
510.22	31378.98
510.42	31680.03
510.63	31307.30
510.83	31438.37
511.04	31598.11
511.24	31626.78
511.44	31667.74
511.65	31704.60
511.85	31802.91
512.06	31798.81
512.26	32261.65
512.47	31866.39
512.67	31942.17
512.88	31778.33
513.08	32089.62
513.29	32484.88
513.49	32142.87
513.69	32359.95
513.90	32134.68
514.10	32226.84
514.31	32618.00
514.51	32620.05
514.72	32697.87
514.92	32595.47
515.13	32747.02
515.33	32648.72
515.53	33150.47
515.74	32886.28
515.94	32962.06
516.15	33205.77
516.35	32841.23
516.56	33476.10
516.76	33385.99
516.96	33474.05
517.17	33512.96
517.37	33142.28
517.58	33668.61
517.78	33988.09
517.99	33277.44
518.19	34045.43
518.39	34051.58
518.60	33701.37
518.80	34047.48
519.01	33920.51
519.21	33912.31
519.41	33859.07
519.62	34059.77
519.82	34299.38
520.03	34579.95
520.23	34469.36
520.43	34495.99
520.64	34686.45
520.84	34928.11
521.05	34610.67
521.25	34846.19
521.45	35100.14
521.66	34940.39
521.86	34760.17
522.07	35098.09
522.27	35061.22
522.47	35327.46
522.68	35569.12
522.88	35280.36
523.08	35603.94
523.29	35786.21
523.49	35892.70
523.70	35974.62
523.90	35978.72
524.10	35859.93
524.31	36103.64
524.51	35921.37
524.71	36763.09
524.92	36099.55
525.12	36548.05
525.33	36566.48
525.53	36599.25
525.73	36822.48
525.94	37008.84
526.14	36851.15
526.34	36824.53
526.55	36943.31
526.75	37027.28
526.95	37545.41
527.16	37393.86
527.36	37397.96
527.56	37191.11
527.77	37817.79
527.97	37813.70
528.17	37715.39
528.38	37508.55
528.58	37946.81
528.78	38129.08
528.99	37987.77
529.19	38534.58
529.39	38092.22
529.60	38536.63
529.80	38440.37
530.00	38626.74
530.21	38600.12
530.41	39011.76
530.61	38583.73
530.82	38845.87
531.02	39167.40
531.22	38620.59
531.43	39042.48
531.63	39411.11
531.83	39718.31
532.04	39708.07
532.24	39433.64
532.44	40054.17
532.64	39564.71
532.85	39990.69
533.05	40029.60
533.25	40222.11
533.46	40123.80
533.66	40398.23
533.86	40220.06
534.07	40568.21
534.27	40822.16
534.47	40850.83
534.67	40873.36
534.88	40895.89
535.08	40889.74
535.28	40824.21
535.49	41684.36
535.69	41262.47
535.89	41416.07
536.09	41717.12
536.30	41944.45
536.50	41725.32
536.70	41815.43
536.91	42087.81
537.11	42194.30
537.31	41874.82
537.51	42272.12
537.72	42560.89
537.92	42280.31
538.12	42794.36
538.32	42456.44
538.53	42667.38
538.73	42837.36
538.93	42986.86
539.13	42843.51
539.34	42878.32
539.54	42941.81
539.74	43281.77
539.94	43079.02
540.15	43169.13
540.35	43681.13
540.55	43357.55
540.75	43406.70
540.96	44068.19
541.16	43599.21
541.36	43763.04
541.56	43806.05
541.77	43988.32
541.97	43853.15
542.17	44387.67
542.37	44500.31
542.58	44528.98
542.78	43812.20
542.98	44025.18
543.18	44612.95
543.38	44281.18
543.59	45106.51
543.79	44655.96
543.99	44827.99
544.19	44961.11
544.40	44445.02
544.60	44604.76
544.80	45133.14
545.00	44952.91
545.20	45315.40
545.41	45086.03
545.61	44846.42
545.81	45360.46
546.01	45604.17
546.21	45368.65
546.42	45827.40
546.62	45450.57
546.82	45507.91
547.02	46159.17
547.22	45653.32
547.43	45471.05
547.63	45718.85
547.83	45688.13
548.03	45684.04
548.23	46292.29
548.44	45968.71
548.64	46009.67
548.84	46312.77
549.04	46355.77
549.24	46243.13
549.45	46474.55
549.65	46644.54
549.85	46726.46
550.05	46687.54
550.25	46603.58
550.45	47441.20
550.66	46740.79
550.86	46533.95
551.06	46880.05
551.26	47127.86
551.46	47002.93
551.66	46759.22
551.87	46814.52
552.07	47320.37
552.27	47244.59
552.47	47146.29
552.67	47535.40
552.87	47148.34
553.07	47666.47
553.28	47398.19
553.48	47742.25
553.68	47301.93
553.88	47656.23
554.08	47271.21
554.28	47977.76
554.48	47574.31
554.69	47795.49
554.89	47967.52
555.09	48010.53
555.29	47572.27
555.49	47736.10
555.69	48045.35
555.89	48092.45
556.10	48004.39
556.30	47750.44
556.50	47967.52
556.70	47848.74
556.90	48305.44
557.10	48696.60
557.30	47918.37
557.50	48622.87
557.70	48393.50
557.91	48733.46
558.11	48297.25
558.31	48078.11
558.51	48493.85
558.71	48745.75
558.91	48641.31
559.11	48608.54
559.31	48790.81
559.51	48489.76
559.72	49059.09
559.92	48817.43
560.12	48495.90
560.32	48917.78
560.52	48383.26
560.72	49216.78
560.92	49304.85
561.12	48958.74
561.32	49554.70
561.52	48958.74
561.72	48862.49
561.93	49196.31
562.13	49001.75
562.33	48821.53
562.53	49665.29
562.73	48981.27
562.93	49179.92
563.13	49536.27
563.33	48993.56
563.53	49435.92
563.73	48936.21
563.93	49241.36
564.13	49730.83
564.33	49620.23
564.53	49552.65
564.74	49681.67
564.94	49462.54
565.14	49356.05
565.34	49315.09
565.54	49587.47
565.74	49749.26
565.94	49800.46
566.14	49493.26
566.34	49640.71
566.54	49947.91
566.74	49765.64
566.94	50050.31
567.14	49859.85
567.34	49468.69
567.54	50054.40
567.74	49771.78
567.94	49868.04
568.14	50011.40
568.34	50025.73
568.54	49767.69
568.74	50154.75
568.94	49714.44
569.14	50078.98
569.34	50566.40
569.54	50513.15
569.75	50171.14
569.95	50246.91
570.15	50339.07
570.35	50441.47
570.55	50277.63
570.75	50287.87
570.95	50339.07
571.15	50197.76
571.35	50717.95
571.55	50660.60
571.75	50394.37
571.95	50703.61
572.15	50527.48
572.35	50826.49
572.55	50687.23
572.75	50836.73
572.95	50750.71
573.15	50930.93
573.35	50623.74
573.55	50322.69
573.75	50672.89
573.95	50883.83
574.15	50617.60
574.35	51217.65
574.55	51309.81
574.75	51297.52
574.95	51043.57
575.15	50939.13
575.34	50939.13
575.54	50988.28
575.74	51330.29
575.94	51309.81
576.14	51324.14
576.34	51309.81
576.54	51700.97
576.74	51162.36
576.94	51277.04
577.14	51694.83
577.34	51887.34
577.54	51086.58
577.74	51795.18
577.94	51703.02
578.14	51637.48
578.34	52417.76
578.54	51418.35
578.74	51989.73
578.94	52208.87
579.14	51471.60
579.34	51772.65
579.54	51848.42
579.74	52393.18
579.94	52251.87
580.13	52348.13
580.33	52143.33
580.53	52423.90
580.73	52284.64
580.93	52399.33
581.13	52499.68
581.33	52647.13
581.53	52626.65
581.73	52438.24
581.93	52673.76
582.13	52397.28
582.33	52788.44
582.53	52632.80
582.73	52759.77
582.92	52729.05
583.12	52770.01
583.32	52931.80
583.52	52909.27
583.72	52903.13
583.92	53249.24
584.12	53320.91
584.32	53562.57
584.52	53345.49
584.72	53327.06
584.92	53056.73
585.11	53515.47
585.31	53540.05
585.51	53406.93
585.71	52993.24
585.91	53808.33
586.11	53310.67
586.31	53494.99
586.51	53523.66
586.71	53783.76
586.91	53974.22
587.10	53757.13
587.30	53814.47
587.50	53650.64
587.70	54121.67
587.90	53867.72
588.10	54228.16
588.30	53380.31
588.50	54013.13
588.69	53765.32
588.89	54062.28
589.09	54318.28
589.29	53953.74
589.49	54049.99
589.69	53585.10
589.89	54500.54
590.08	54310.08
590.28	54389.95
590.48	54121.67
590.68	53736.65
590.88	54025.42
591.08	54441.15
591.28	54138.05
591.47	54881.47
591.67	54940.86
591.87	54275.27
592.07	54826.17
592.27	54525.12
592.47	54666.43
592.67	54625.47
592.86	54697.15
593.06	55028.92
593.26	54842.56
593.46	54613.18
593.66	54772.92
593.86	54834.36
594.05	54705.34
594.25	55465.14
594.45	54598.85
594.65	55055.54
594.85	54760.64
595.05	55102.65
595.24	55039.16
595.44	55110.84
595.64	54983.86
595.84	55020.73
596.04	55080.12
596.23	54830.27
596.43	55522.48
596.63	54916.28
596.83	55526.58
597.03	55735.47
597.22	55266.48
597.42	55309.49
597.62	55583.92
597.82	55526.58
598.02	55844.01
598.21	55997.61
598.41	55368.88
598.61	55614.64
598.81	55901.36
599.01	55930.03
599.20	55573.68
599.40	55751.85
599.60	56095.91
599.80	55989.42
600.00	55696.56
600.19	56489.12
600.39	56095.91
600.59	56267.94
600.79	55870.64
600.98	56464.55
601.18	56300.71
601.38	56415.40
601.58	56489.12
601.78	56349.86
601.97	56267.94
602.17	56612.00
602.37	56689.82
602.57	56091.82
602.76	56655.01
602.96	56558.75
603.16	57037.98
603.36	56251.56
603.55	56732.83
603.75	56861.85
603.95	56824.99
604.15	57007.26
604.34	56513.70
604.54	56626.34
604.74	57015.45
604.94	57115.80
605.13	57492.63
605.33	57074.84
605.53	56929.44
605.73	57439.38
605.92	57199.77
606.12	57173.14
606.32	57320.60
606.52	56683.68
606.71	57291.93
606.91	57341.08
607.11	57054.36
607.30	56898.72
607.50	57283.73
607.70	57719.95
607.90	57332.89
608.09	57558.16
608.29	57564.31
608.49	57146.52
608.68	57590.93
608.88	57431.19
609.08	57451.67
609.28	57494.67
609.47	57410.71
609.67	58139.78
609.87	57236.63
610.06	58145.93
610.26	57681.04
610.46	58066.06
610.66	57767.05
610.85	57908.36
611.05	57353.36
611.25	58027.15
611.44	57750.67
611.64	58010.76
611.84	57775.25
612.03	57423.00
612.23	57722.00
612.43	57668.75
612.62	57689.23
612.82	57873.55
613.02	57746.57
613.21	57875.60
613.41	57498.77
613.61	58039.43
613.80	57257.11
614.00	57623.70
614.20	57662.61
614.39	57605.26
614.59	57982.09
614.79	57623.70
614.98	57662.61
615.18	57846.93
615.38	57838.73
615.57	57619.60
615.77	57654.42
615.97	57859.21
616.16	57853.07
616.36	57846.93
616.56	57840.78
616.75	57488.53
616.95	57336.98
617.15	57693.33
617.34	57513.11
617.54	57863.31
617.74	57853.07
617.93	57980.04
618.13	57429.14
618.32	57566.35
618.52	57490.58
618.72	57566.35
618.91	57433.24
619.11	57087.13
619.31	57379.99
619.50	57283.73
619.70	57089.18
619.90	57289.88
620.09	57263.25
620.29	57543.83
620.48	57597.07
620.68	57791.63
620.88	56882.33
621.07	57296.02
621.27	57685.14
621.46	57109.66
621.66	57226.39
621.86	57457.81
622.05	56966.30
622.25	57490.58
622.44	57250.97
622.64	56921.24
622.84	57236.63
623.03	57035.93
623.23	57162.90
623.42	57226.39
623.62	57326.74
623.82	57527.44
624.01	57410.71
624.21	57035.93
624.40	57187.48
624.60	56814.75
624.80	57060.51
624.99	56546.47
625.19	56390.82
625.38	57179.29
625.58	57447.57
625.77	56958.11
625.97	56802.46
626.17	56198.31
626.36	56868.00
626.56	57062.55
626.75	56378.53
626.95	57363.60
627.14	56243.37
627.34	57328.79
627.54	56525.99
627.73	57025.69
627.93	56652.96
628.12	56411.30
628.32	57111.70
628.51	57099.42
628.71	56472.74
628.90	56831.13
629.10	56444.07
629.30	56761.50
629.49	56837.28
629.69	56319.14
629.88	57046.17
630.08	56599.71
630.27	56450.21
630.47	57013.40
630.66	56466.59
630.86	56870.04
631.05	56505.51
631.25	56837.28
631.44	56632.48
631.64	56665.25
631.84	56509.60
632.03	56923.29
632.23	56663.20
632.42	56923.29
632.62	56777.89
632.81	56360.10
633.01	56628.38
633.20	56886.43
633.40	56558.75
633.59	56472.74
633.79	56300.71
633.98	56171.69
634.18	56517.79
634.37	56759.45
634.57	56638.62
634.76	56689.82
634.96	56609.95
635.15	56628.38
635.35	56140.97
635.54	56114.34
635.74	56632.48
635.93	56161.45
636.13	56542.37
636.32	56863.90
636.52	56294.56
636.71	56333.48
636.91	56411.30
637.10	56521.89
637.30	56698.01
637.49	56224.93
637.69	56323.24
637.88	57091.22
638.08	56835.23
638.27	56591.52
638.46	56505.51
638.66	56554.66
638.85	56472.74
639.05	56603.81
639.24	56525.99
639.44	55887.02
639.63	56536.23
639.83	56822.94
640.02	56143.02
640.22	56458.40
640.41	56872.09
640.61	55903.40
640.80	56200.36
640.99	56339.62
641.19	56790.17
641.38	56673.44
641.58	56333.48
641.77	56130.73
641.97	55905.45
642.16	56149.16
642.36	56380.58
642.55	56325.28
642.74	55895.21
642.94	56480.93
643.13	56556.70
643.33	56558.75
643.52	56196.26
643.72	56491.17
643.91	56442.02
644.10	56198.31
644.30	56437.92
644.49	56288.42
644.69	56525.99
644.88	56161.45
645.08	56044.71
645.27	56380.58
645.46	56153.26
645.66	56165.54
645.85	56112.30
646.05	56179.88
646.24	56644.77
646.43	56237.22
646.63	56353.96
646.82	56464.55
647.02	56884.38
647.21	56421.54
647.40	56378.53
647.60	56464.55
647.79	56415.40
647.99	56206.50
648.18	56284.33
648.37	56597.66
648.57	56439.97
648.76	56130.73
648.96	55973.03
649.15	56290.47
649.34	57003.16
649.54	56781.98
649.73	56380.58
649.92	56323.24
650.12	56634.53
650.31	56343.72
650.51	56593.57
650.70	56546.47
650.89	56759.45
651.09	56868.00
651.28	56665.25
651.47	56364.20
651.67	56378.53
651.86	57128.09
652.06	55923.88
652.25	56683.68
652.44	56718.49
652.64	56786.08
652.83	56306.85
653.02	56353.96
653.22	56390.82
653.41	56349.86
653.60	56155.30
653.80	56601.76
653.99	56812.70
654.18	56218.79
654.38	56157.35
654.57	56183.97
654.76	56550.56
654.96	56165.54
655.15	56167.59
655.34	56106.15
655.54	56210.60
655.73	56147.11
655.92	56435.87
656.12	56106.15
656.31	56376.48
656.50	56685.73
656.70	56616.10
656.89	56044.71
657.08	56229.03
657.28	56134.82
657.47	56116.39
657.66	56251.56
657.86	55913.64
658.05	56792.22
658.24	56425.64
658.43	56380.58
658.63	56747.17
658.82	56597.66
659.01	56034.47
659.21	56341.67
659.40	56075.43
659.59	56358.05
659.79	56159.40
659.98	56013.99
660.17	56145.06
660.36	56519.84
660.56	56423.59
660.75	56378.53
660.94	56640.67
661.14	56018.09
661.33	55919.79
661.52	55817.39
661.71	56327.33
661.91	55659.69
662.10	56239.27
662.29	56165.54
662.49	56319.14
662.68	55858.35
662.87	56233.13
663.06	55561.39
663.26	56145.06
663.45	55991.47
663.64	55764.14
663.83	56114.34
664.03	56016.04
664.22	56130.73
664.41	55983.27
664.60	55829.68
664.80	55649.45
664.99	55776.43
665.18	55964.84
665.37	55612.59
665.57	56247.46
665.76	55772.33
665.95	55604.40
666.14	55276.72
666.34	55794.86
666.53	55415.99
666.72	55624.88
666.91	55723.18
667.11	55444.66
667.30	55788.72
667.49	55510.19
667.68	55882.92
667.87	55846.06
668.07	55608.50
668.26	55612.59
668.45	55663.79
668.64	55237.81
668.84	55989.42
669.03	55678.13
669.22	55819.44
669.41	55502.00
669.60	55594.16
669.80	55301.30
669.99	55481.52
670.18	55667.89
670.37	54912.19
670.57	55792.81
670.76	55350.45
670.95	55620.78
671.14	55454.90
671.33	55088.31
671.53	55579.82
671.72	55524.53
671.91	55323.83
672.10	55301.30
672.29	55485.62
672.48	54998.20
672.68	55280.82
672.87	55188.66
673.06	54744.25
673.25	54961.34
673.44	54590.66
673.64	54926.52
673.83	54895.80
674.02	54727.87
674.21	54488.26
674.40	55227.57
674.59	54955.19
674.79	54512.83
674.98	54512.83
675.17	54897.85
675.36	54922.43
675.55	54797.50
675.74	54400.19
675.94	54670.53
676.13	54744.25
676.32	54518.98
676.51	55309.49
676.70	54789.31
676.89	54777.02
677.08	54744.25
677.28	54285.51
677.47	55176.37
677.66	55014.58
677.85	54879.42
678.04	54844.60
678.23	55016.63
678.42	54416.58
678.62	54211.78
678.81	54668.48
679.00	54047.94
679.19	55194.81
679.38	54189.25
679.57	54293.70
679.76	54348.99
679.96	54529.22
680.15	54568.13
680.34	54518.98
680.53	53945.54
680.72	54205.64
680.91	54799.55
681.10	53992.65
681.29	54385.86
681.48	53757.13
681.68	54240.45
681.87	54318.28
682.06	53910.73
682.25	53785.80
682.44	54011.08
682.63	54189.25
682.82	53771.47
683.01	53544.14
683.20	53802.19
683.39	53814.47
683.59	53834.95
683.78	53591.25
683.97	53646.54
684.16	53542.10
684.35	53425.36
684.54	53363.92
684.73	53609.68
684.92	53802.19
685.11	53087.45
685.30	53425.36
685.49	53898.44
685.69	53392.59
685.88	53425.36
686.07	53474.51
686.26	53402.83
686.45	53408.98
686.64	53529.81
686.83	53368.02
687.02	53355.73
687.21	53253.33
687.40	53030.10
687.59	52948.18
687.78	52876.51
687.97	53361.87
688.16	52931.80
688.35	52770.01
688.54	52856.03
688.74	53185.75
688.93	52450.53
689.12	52696.28
689.31	52823.26
689.50	52815.07
689.69	53077.21
689.88	51936.49
690.07	52720.86
690.26	52202.72
690.45	52876.51
690.64	52575.45
690.83	52610.27
691.02	52384.99
691.21	52485.34
691.40	52305.12
691.59	52518.11
691.78	52341.99
691.97	52258.02
692.16	52026.60
692.35	52294.88
692.54	52278.50
692.73	52366.56
692.92	52079.85
693.11	51741.93
693.30	52057.32
693.49	52206.82
693.68	52067.56
693.87	52094.18
694.06	51600.62
694.25	51946.73
694.44	51367.15
694.63	51746.03
694.82	51729.64
695.01	51741.93
695.20	51399.92
695.39	51473.65
695.58	51670.25
695.77	51406.06
695.96	51191.03
696.15	51520.75
696.34	51361.01
696.53	51504.37
696.72	51393.78
696.91	51320.05
697.10	50992.37
697.29	51131.64
697.48	51145.97
697.67	50990.33
697.86	50631.93
698.05	51096.82
698.24	51205.36
698.43	50717.95
698.62	50935.03
698.81	50892.02
699.00	50832.63
699.19	50375.94
699.38	50756.86
699.57	50468.09
699.76	50918.65
699.95	50423.04
700.14	50470.14
700.32	50185.47
700.51	50724.09
700.70	50957.56
700.89	51199.22
701.08	50365.70
701.27	50468.09
701.46	50601.21
701.65	49962.25
701.84	50527.48
702.03	50345.22
702.22	49925.38
702.41	49849.61
702.60	49796.36
702.79	50205.95
702.98	49904.90
703.17	49968.39
703.35	49773.83
703.54	49900.81
703.73	50464.00
703.92	50011.40
704.11	49837.32
704.30	49986.82
704.49	49775.88
704.68	49331.47
704.87	49782.02
705.06	49192.21
705.25	49558.80
705.43	49855.75
705.62	49827.08
705.81	49679.63
706.00	49751.30
706.19	49288.46
706.38	49231.12
706.57	49249.55
706.76	49091.86
706.95	49661.19
707.14	48971.03
707.32	48889.11
707.51	49061.14
707.70	48803.10
707.89	48844.05
708.08	48700.70
708.27	48872.73
708.46	49005.84
708.65	48821.53
708.84	48778.52
709.02	48747.80
709.21	49001.75
709.40	48600.35
709.59	48649.50
709.78	48411.93
709.97	48807.19
710.16	48479.52
710.34	48258.34
710.53	48426.27
710.72	48624.92
710.91	48575.77
711.10	48368.93
711.29	48489.76
711.48	48276.77
711.66	48166.18
711.85	48278.82
712.04	47846.69
712.23	48403.74
712.42	48278.82
712.61	47691.05
712.80	48002.34
712.98	47910.18
713.17	47572.27
713.36	47748.39
713.55	47809.83
713.74	47582.51
713.93	47189.30
714.11	47684.90
714.30	47371.57
714.49	47146.29
714.68	47858.98
714.87	47559.98
715.06	47332.65
715.24	47504.68
715.43	47402.28
715.62	47209.78
715.81	47383.85
716.00	47377.71
716.18	47045.94
716.37	46927.16
716.56	47043.89
716.75	47258.93
716.94	47209.78
717.12	46945.59
717.31	46861.62
717.50	46761.27
717.69	46470.46
717.88	46775.61
718.06	46314.81
718.25	46734.65
718.44	46349.63
718.63	46556.47
718.82	46116.16
719.00	46323.01
719.19	45948.23
719.38	46269.76
719.57	46243.13
719.76	45927.75
719.94	46067.01
720.13	45892.93
720.32	45739.33
720.51	45798.73
720.69	46257.47
720.88	45520.20
721.07	45733.19
721.26	45325.64
721.44	45182.29
721.63	45210.96
721.82	45403.47
722.01	45219.15
722.20	45622.60
722.38	45264.21
722.57	45151.57
722.76	45020.50
722.95	45143.38
723.13	44899.67
723.32	45299.02
723.51	44545.37
723.70	44698.97
723.88	45063.50
724.07	44942.67
724.26	44774.74
724.44	44408.15
724.63	44612.95
724.82	44895.57
725.01	44610.90
725.19	44399.96
725.38	44391.77
725.57	44330.33
725.76	44553.56
725.94	44078.43
726.13	44330.33
726.32	44133.73
726.51	43781.48
726.69	44494.17
726.88	44268.89
727.07	44209.50
727.25	44193.12
727.44	44270.94
727.63	44037.47
727.82	43754.85
728.00	44180.83
728.19	43681.13
728.38	44133.73
728.56	43552.10
728.75	44096.86
728.94	43758.95
729.12	43529.58
729.31	44129.63
729.50	44010.85
729.69	43973.98
729.87	43445.61
730.06	43656.55
730.25	43380.07
730.43	43711.84
730.62	43392.36
730.81	44016.99
730.99	43791.72
731.18	43304.30
731.37	43261.29
731.55	43855.20
731.74	43498.86
731.93	43752.80
732.11	43672.93
732.30	43572.58
732.49	43398.51
732.67	43613.54
732.86	43318.64
733.05	43609.45
733.23	42714.48
733.42	43509.10
733.61	43150.70
733.79	43482.47
733.98	43320.68
734.17	42769.78
734.35	43371.88
734.54	43314.54
734.73	43064.69
734.91	43228.52
735.10	42952.05
735.29	43240.81
735.47	42968.43
735.66	43160.94
735.84	42925.42
736.03	43072.88
736.22	43431.27
736.40	42988.91
736.59	42995.06
736.78	42472.82
736.96	42599.80
737.15	42657.14
737.33	42913.14
737.52	42562.93
737.71	42493.30
737.89	42513.78
738.08	42507.64
738.27	42440.06
738.45	42689.91
738.64	42417.53
738.82	42794.36
739.01	42386.81
739.20	42571.13
739.38	42450.30
739.57	42702.20
739.75	42755.44
739.94	42173.82
740.13	42415.48
740.31	42222.97
740.50	42704.24
740.68	42300.79
740.87	42245.50
741.06	42481.02
741.24	42182.01
741.43	41772.42
741.61	42009.98
741.80	41850.24
741.99	42143.10
742.17	42102.14
742.36	41799.04
742.54	41471.37
742.73	41770.37
742.91	41891.20
743.10	41424.26
743.29	41813.38
743.47	42108.29
743.66	41854.34
743.84	41635.20
744.03	41579.91
744.21	41737.60
744.40	41760.13
744.59	41387.40
744.77	41348.49
744.96	41342.35
745.14	41360.78
745.33	41446.79
745.51	41088.40
745.70	41510.28
745.88	41127.31
746.07	41059.73
746.26	41385.35
746.44	41477.51
746.63	41342.35
746.81	40861.07
747.00	40965.52
747.18	41119.12
747.37	41055.63
747.55	40797.59
747.74	40994.19
747.92	40834.45
748.11	40918.42
748.29	40799.63
748.48	40727.95
748.66	40392.09
748.85	40936.85
749.03	41008.53
749.22	40654.23
749.41	40566.16
749.59	40674.71
749.78	40437.14
749.96	40185.24
750.15	40474.01
750.33	40521.11
750.52	40396.18
750.70	40172.96
750.89	40199.58
751.07	40134.04
751.26	40162.72
751.44	40064.41
751.63	40316.31
751.81	39839.14
752.00	39978.40
752.18	40025.50
752.37	39898.53
752.55	39794.08
752.74	39830.94
752.92	39841.18
753.10	39857.57
753.29	39923.10
753.47	39593.38
753.66	39224.75
753.84	39669.15
754.03	39300.52
754.21	39441.83
754.40	39746.98
754.58	39605.67
754.77	39710.11
754.95	39073.20
755.14	39151.02
755.32	39181.74
755.51	38983.09
755.69	38925.74
755.88	39355.82
756.06	38942.13
756.24	39075.24
756.43	38849.97
756.61	39159.21
756.80	38888.88
756.98	38747.57
757.17	38874.54
757.35	38606.26
757.54	38847.92
757.72	38440.37
757.90	38794.67
758.09	38557.11
758.27	38559.16
758.46	38323.64
758.64	38387.13
758.83	38692.27
759.01	38716.85
759.19	38649.27
759.38	38325.69
759.56	38534.58
759.75	38749.62
759.93	38231.48
760.12	38053.31
760.30	38231.48
760.48	38018.49
760.67	38079.93
760.85	38534.58
761.04	38542.77
761.22	38127.03
761.40	38075.84
761.59	38022.59
761.77	37465.54
761.96	38043.07
762.14	38036.92
762.32	37680.58
762.51	37823.93
762.69	37602.75
762.88	37916.09
763.06	37373.38
763.24	37914.05
763.43	37656.00
763.61	37576.13
763.80	37471.68
763.98	37449.16
764.16	37729.73
764.35	37309.89
764.53	36998.60
764.72	37127.63
764.90	37457.35
765.08	37195.21
765.27	37041.61
765.45	36955.60
765.63	36713.94
765.82	36916.68
766.00	36687.31
766.18	36578.77
766.37	36937.16
766.55	36724.18
766.74	36769.23
766.92	36498.90
767.10	36410.84
767.29	36269.53
767.47	36300.25
767.65	36533.71
767.84	36201.94
768.02	36238.81
768.20	36220.38
768.39	36324.82
768.57	36181.46
768.75	36144.60
768.94	36310.49
769.12	36472.28
769.30	36007.39
769.49	35894.75
769.67	36234.71
769.85	35476.96
770.04	35698.14
770.22	35753.44
770.40	36017.63
770.59	35634.66
770.77	36117.98
770.95	35673.57
771.14	35530.21
771.32	35315.17
771.50	35055.08
771.69	35210.73
771.87	35505.63
772.05	35458.53
772.24	35046.89
772.42	35237.35
772.60	35337.70
772.78	35022.31
772.97	35372.52
773.15	35210.73
773.33	34725.36
773.52	34838.00
773.70	35190.25
773.88	35321.32
774.07	34872.81
774.25	35083.75
774.43	35198.44
774.61	35182.06
774.80	35458.53
774.98	34833.90
775.16	35405.28
775.34	35327.46
775.53	34848.24
775.71	35323.36
775.89	34946.54
776.08	34905.58
776.26	35091.94
776.44	35296.74
776.62	35053.03
776.81	35042.79
776.99	35255.78
777.17	35159.53
777.35	35210.73
777.54	35206.63
777.72	35079.66
777.90	35327.46
778.08	35145.19
778.27	34942.44
778.45	35456.48
778.63	35145.19
778.81	35091.94
779.00	35710.43
779.18	35413.48
779.36	35571.17
779.54	35153.38
779.73	35155.43
779.91	35536.35
780.09	35218.92
780.27	35513.83
780.46	35466.72
780.64	35587.55
780.82	35341.80
781.00	35114.47
781.19	35679.71
781.37	35311.08
781.55	35472.87
781.73	35757.53
781.91	35390.95
782.10	35610.08
782.28	35007.98
782.46	35698.14
782.64	35927.52
782.82	35462.63
783.01	35325.41
783.19	35597.79
783.37	35487.20
783.55	35612.13
783.74	35565.03
783.92	35163.62
784.10	35890.65
784.28	35667.42
784.46	35452.39
784.64	35304.93
784.83	35165.67
785.01	35479.01
785.19	35145.19
785.37	35575.27
785.55	35403.24
785.74	35034.60
785.92	34907.63
786.10	35370.47
786.28	34971.11
786.46	34928.11
786.64	34885.10
786.83	35014.12
787.01	35079.66
787.19	34842.09
787.37	35122.66
787.55	35038.70
787.74	34657.78
787.92	34919.92
788.10	34668.02
788.28	34891.24
788.46	35007.98
788.64	34741.74
788.82	35143.14
789.01	34797.04
789.19	34547.18
789.37	34469.36
789.55	34389.49
789.73	34446.83
789.91	34569.71
790.09	34358.77
790.28	34063.86
790.46	34014.71
790.64	34022.90
790.82	34237.94
791.00	33938.94
791.18	34094.58
791.36	34448.88
791.55	34096.63
791.73	33785.34
791.91	33439.23
792.09	33547.78
792.27	33609.22
792.45	33351.17
792.63	33596.93
792.81	33469.95
793.00	33256.96
793.18	33369.60
793.36	33218.05
793.54	33105.41
793.72	33099.27
793.90	33166.85
794.08	32644.62
794.26	32681.49
794.44	32978.44
794.62	32689.68
794.81	32929.29
794.99	32695.82
795.17	32558.61
795.35	32343.57
795.53	32587.28
795.71	32613.90
795.89	32138.77
796.07	31991.32
796.25	31964.70
796.43	32161.30
796.61	31897.11
796.80	31682.08
796.98	31933.98
797.16	31487.52
797.34	31577.63
797.52	31419.94
797.70	31733.28
797.88	31157.80
798.06	31383.07
798.24	31282.72
798.42	31239.72
798.60	31440.42
798.78	30942.76
798.96	31139.36
799.14	31163.94
799.32	30854.70
799.51	30903.85
799.69	30950.95
799.87	30776.87
800.05	30778.92
800.23	30694.96
800.41	30547.50
800.59	30477.87
800.77	30215.73
800.95	30299.70
801.13	30139.96
801.31	29867.58
801.49	29892.15
801.67	30027.32
801.85	30375.47
802.03	29830.71
802.21	29759.03
802.39	29873.72
802.57	29810.23
802.75	29539.90
802.93	29148.74
803.11	29345.34
803.29	29396.54
803.47	29298.24
803.65	28976.71
803.83	29066.82
804.01	29333.06
804.19	28683.85
804.37	28646.99
804.55	29056.58
804.73	28909.13
804.91	28606.03
805.09	28778.06
805.27	28612.17
805.45	28907.08
805.63	28644.94
805.81	28771.91
805.99	28708.43
806.17	28614.22
806.35	28405.33
806.53	28182.10
806.71	28102.23
806.89	27983.44
807.07	28012.12
807.25	28149.33
807.43	27874.90
807.61	28173.91
807.79	27991.64
807.97	27651.67
808.15	27616.86
808.33	27854.42
808.51	27698.78
808.69	27553.37
808.87	27620.95
809.05	27801.18
809.23	27336.29
809.41	27145.83
809.59	27057.76
809.77	27369.05
809.95	27100.77
810.13	27133.54
810.31	27221.60
810.49	26965.60
810.67	26869.35
810.84	27037.28
811.02	27022.95
811.20	26474.09
811.38	26836.58
811.56	26365.55
811.74	26513.00
811.92	26558.06
812.10	26527.34
812.28	26664.55
812.46	26226.29
812.64	26431.08
812.82	26519.15
813.00	26224.24
813.18	26062.45
813.36	26320.49
813.53	25921.14
813.71	26156.66
813.89	25917.04
814.07	26230.38
814.25	25781.88
814.43	25886.32
814.61	25646.71
814.79	25757.30
814.97	25751.16
815.15	25495.16
815.33	25433.72
815.50	25153.15
815.68	25458.30
815.86	25675.38
816.04	25165.44
816.22	25726.58
816.40	25233.02
816.58	25392.76
816.76	24985.22
816.94	25097.86
817.11	25448.06
817.29	25112.19
817.47	24938.12
817.65	25038.47
817.83	24938.12
818.01	24483.47
818.19	24696.46
818.37	24866.44
818.54	24626.82
818.72	24561.29
818.90	25050.75
819.08	24264.33
819.26	24499.85
819.44	24512.14
819.62	24622.73
819.80	24528.52
819.97	24473.23
820.15	24284.81
820.33	24139.41
820.51	24608.39
820.69	24190.61
820.87	24200.85
821.05	24047.25
821.22	24090.26
821.40	23860.88
821.58	23950.99
821.76	23537.30
821.94	23707.29
822.12	23793.30
822.29	23930.51
822.47	23883.41
822.65	23875.22
822.83	23668.37
823.01	23910.04
823.19	23598.74
823.36	23547.54
823.54	23635.61
823.72	23447.19
823.90	23506.59
824.08	23170.72
824.25	23469.72
824.43	23297.69
824.61	23258.78
824.79	23230.11
824.97	23062.18
825.15	23107.23
825.32	23166.62
825.50	23031.46
825.68	23029.41
825.86	23107.23
826.04	22957.73
826.21	23135.90
826.39	22822.56
826.57	22881.95
826.75	22886.05
826.93	22929.06
827.10	22691.49
827.28	22933.15
827.46	22994.59
827.64	22978.21
827.81	22673.06
827.99	22621.86
828.17	22382.25
828.35	22490.79
828.53	22570.66
828.70	22492.84
828.88	22206.13
829.06	22245.04
829.24	22630.05
829.41	22224.56
829.59	22329.00
829.77	22089.39
829.95	22408.87
830.12	22329.00
830.30	22177.45
830.48	22124.21
830.66	21933.75
830.84	22009.52
831.01	21921.46
831.19	22075.06
831.37	21892.79
831.55	21774.00
831.72	21808.82
831.90	22027.95
832.08	21626.55
832.25	22056.62
832.43	21976.75
832.61	21980.85
832.79	21593.78
832.96	21616.31
833.14	21782.20
833.32	21788.34
833.50	21780.15
833.67	21515.96
833.85	21733.04
834.03	21268.16
834.20	21589.69
834.38	21784.24
834.56	21524.15
834.74	21444.28
834.91	21464.76
835.09	21403.32
835.27	21055.17
835.44	21202.62
835.62	21274.30
835.80	21051.07
835.98	21268.16
836.15	21208.76
836.33	20836.03
836.51	21431.99
836.68	21268.16
836.86	21126.85
837.04	20858.56
837.21	20686.53
837.39	20829.89
837.57	21024.45
837.75	20979.39
837.92	20655.81
838.10	20745.92
838.28	20639.43
838.45	20711.11
838.63	20682.44
838.81	20702.92
838.98	20446.92
839.16	20696.77
839.34	20324.04
839.51	20479.69
839.69	20168.40
839.87	20131.53
840.04	20299.47
840.22	20305.61
840.40	20281.03
840.57	20240.08
840.75	20289.23
840.93	20143.82
841.10	20070.09
841.28	20375.24
841.46	20358.86
841.63	20188.88
841.81	20229.84
841.98	20109.01
842.16	20180.68
842.34	20328.14
842.51	19918.54
842.69	20143.82
842.87	19932.88
843.04	19963.60
843.22	19961.55
843.40	20106.96
843.57	19896.02
843.75	19900.11
843.92	19928.78
844.10	19736.27
844.28	19785.43
844.45	19666.64
844.63	19685.08
844.81	19429.08
844.98	19693.27
845.16	19377.88
845.33	19535.57
845.51	19412.70
845.69	19451.61
845.86	19326.68
846.04	19218.14
846.21	19367.64
846.39	19173.08
846.57	19193.56
846.74	19467.99
846.92	19392.22
847.09	19168.99
847.27	19134.17
847.45	19513.05
847.62	18978.53
847.80	18990.81
847.97	19234.52
848.15	19039.97
848.32	18984.67
848.50	19080.92
848.68	18861.79
848.85	19144.41
849.03	19181.28
849.20	19222.23
849.38	18972.38
849.56	18951.90
849.73	18740.96
849.91	18757.35
850.08	18943.71
850.26	18912.99
850.43	18812.64
850.61	19146.46
850.78	18583.27
850.96	18618.08
851.14	18530.02
851.31	18765.54
851.49	18376.42
851.66	18605.80
851.84	18269.93
852.01	18765.54
852.19	18665.19
852.36	18435.81
852.54	18382.57
852.71	18411.24
852.89	18353.90
853.07	18331.37
853.24	18265.83
853.42	18259.69
853.59	18433.77
853.77	18177.77
853.94	18190.06
854.12	18296.55
854.29	18093.80
854.47	18165.48
854.64	18173.67
854.82	18104.04
854.99	18063.08
855.17	17790.70
855.34	18136.81
855.52	17911.53
855.69	18063.08
855.87	17903.34
856.04	17704.69
856.22	17794.80
856.39	17870.58
856.57	17843.95
856.74	17573.62
856.92	17692.40
857.09	17436.41
857.27	17753.84
857.44	17647.35
857.62	17608.44
857.79	17872.62
857.97	17516.28
858.14	17753.84
858.32	17405.69
858.49	17573.62
858.67	17684.21
858.84	17854.19
859.02	17325.82
859.19	17250.04
859.37	17207.03
859.54	17399.54
859.72	17716.98
859.89	17254.14
860.06	17366.78
860.24	17100.54
860.41	17336.06
860.59	17336.06
860.76	17391.35
860.94	17028.86
861.11	17252.09
861.29	17028.86
861.46	17088.25
861.64	16987.90
861.81	16936.70
861.98	16897.79
862.16	16987.90
862.33	16787.20
862.51	16762.62
862.68	17024.76
862.86	16869.12
863.03	16764.67
863.21	16469.76
863.38	16674.56
863.55	16678.66
863.73	16824.06
863.90	16627.46
864.08	16824.06
864.25	16674.56
864.43	16510.72
864.60	16834.30
864.77	16592.64
864.95	16512.77
865.12	16373.51
865.30	16447.24
865.47	16424.71
865.64	16445.19
865.82	16586.50
865.99	16418.57
866.17	16211.72
866.34	16078.60
866.51	16123.66
866.69	16291.59
866.86	16244.49
867.04	16142.09
867.21	16205.58
867.38	16226.06
867.56	16084.75
867.73	16021.26
867.91	15939.34
868.08	16166.67
868.25	15896.33
868.43	15935.24
868.60	15955.72
868.78	15544.08
868.95	16006.92
869.12	16008.97
869.30	15671.06
869.47	15978.25
869.64	15787.79
869.82	15812.37
869.99	15587.09
870.16	15892.24
870.34	15533.84
870.51	15646.48
870.69	15675.15
870.86	15429.40
871.03	15476.50
871.21	15507.22
871.38	15560.47
871.55	15374.10
871.73	15312.66
871.90	15195.93
872.07	15226.65
872.25	15015.71
872.42	15187.74
872.59	15126.30
872.77	15101.72
872.94	15019.80
873.11	15101.72
873.29	15081.24
873.46	14944.03
873.63	14835.49
873.81	15122.20
873.98	14681.89
874.15	14960.41
874.33	14833.44
874.50	14845.73
874.67	14800.67
874.85	14931.74
875.02	14610.21
875.19	14444.32
875.37	14599.97
875.54	14630.69
875.71	14661.41
875.88	14395.17
876.06	14462.76
876.23	14518.05
876.40	14247.72
876.58	14473.00
876.75	14321.45
876.92	14440.23
877.10	14163.75
877.27	14141.22
877.44	14075.69
877.61	14200.62
877.79	13993.77
877.96	14237.48
878.13	14210.86
878.31	13975.34
878.48	14090.02
878.65	14010.15
878.82	14044.97
879.00	14090.02
879.17	13848.36
879.34	13868.84
879.51	14006.06
879.69	13694.77
879.86	13668.14
880.03	13657.90
880.21	13745.97
880.38	13827.88
880.55	13907.76
880.72	13629.23
880.90	13778.73
881.07	13758.25
881.24	13778.73
881.41	13846.32
881.59	13561.65
881.76	13700.91
881.93	13498.16
882.10	13498.16
882.28	13416.24
882.45	13625.14
882.62	13494.07
882.79	13635.38
882.96	13313.84
883.14	13657.90
883.31	13514.55
883.48	13383.48
883.65	13571.89
883.83	13479.73
884.00	13352.76
884.17	13475.63
884.34	13147.96
884.51	13260.60
884.69	13266.74
884.86	13315.89
885.03	13215.54
885.20	13174.58
885.38	13285.17
885.55	13242.17
885.72	13233.97
885.89	13049.66
886.06	13131.58
886.24	13258.55
886.41	12996.41
886.58	13270.84
886.75	13193.01
886.92	13020.99
887.10	13309.75
887.27	12734.27
887.44	12865.34
887.61	13147.96
887.78	12904.25
887.95	13031.23
888.13	12818.24
888.30	12875.58
888.47	12781.37
888.64	12695.36
888.81	12851.00
888.99	12732.22
889.16	12840.76
889.33	12513.09
889.50	12625.73
889.67	12721.98
889.84	12519.23
890.01	12513.09
890.19	12699.45
890.36	12607.30
890.53	12439.36
890.70	12543.81
890.87	12595.01
891.04	12433.22
891.22	12685.12
891.39	12541.76
891.56	12349.25
891.73	12412.74
891.90	12275.52
892.07	12271.43
892.24	12212.04
892.42	12320.58
892.59	12101.45
892.76	12328.77
892.93	12320.58
893.10	12281.67
893.27	12257.09
893.44	12171.08
893.61	12130.12
893.79	12246.85
893.96	12085.06
894.13	12097.35
894.30	12388.16
894.47	12066.63
894.64	12154.69
894.81	12306.24
894.98	12062.54
895.15	12023.62
895.33	11980.62
895.50	12013.38
895.67	12083.02
895.84	12029.77
896.01	11857.74
896.18	11972.43
896.35	12140.36
896.52	12001.10
896.69	12060.49
896.86	12154.69
897.04	11917.13
897.21	11997.00
897.38	11988.81
897.55	11966.28
897.72	12242.76
897.89	12027.72
898.06	11921.23
898.23	12117.83
898.40	12046.15
898.57	12005.19
898.74	12087.11
898.91	11767.63
899.08	11947.85
899.26	11917.13
899.43	12044.10
899.60	11726.67
899.77	11947.85
899.94	11990.86
900.11	11915.08
900.28	11726.67
900.45	12052.30
900.62	11720.53
900.79	11980.62
900.96	11822.92
901.13	12085.06
901.30	11751.24
901.47	11855.69
901.64	11933.51
901.81	11837.26
901.98	11736.91
902.15	11984.71
902.32	12109.64
902.49	11814.73
902.66	11863.88
902.83	11777.87
903.01	11644.75
903.18	12023.62
903.35	11738.96
903.52	11538.26
903.69	11888.46
903.86	11616.08
904.03	11929.42
904.20	11796.30
904.37	11960.14
904.54	11585.36
904.71	11708.24
904.88	11683.66
905.05	11581.26
905.22	11935.56
905.39	11769.68
905.56	11908.94
905.73	11689.81
905.90	11738.96
906.07	11792.20
906.24	11798.35
906.41	11786.06
906.58	11501.39
906.75	11628.37
906.92	11650.89
907.09	11728.72
907.26	11640.65
907.43	11577.17
907.60	11614.03
907.77	11644.75
907.93	11534.16
908.10	11732.81
908.27	11530.06
908.44	11530.06
908.61	11450.19
908.78	11532.11
908.95	11663.18
909.12	11585.36
909.29	11372.37
909.46	11650.89
909.63	11702.09
909.80	11716.43
909.97	11534.16
910.14	11427.67
910.31	11386.71
910.48	11425.62
910.65	11415.38
910.82	11407.19
910.99	11505.49
911.16	11421.52
911.33	11327.32
911.50	11437.91
911.66	11394.90
911.83	11427.67
912.00	11280.21
912.17	11339.60
912.34	11173.72
912.51	11274.07
912.68	11173.72
912.85	11102.04
913.02	11263.83
913.19	11040.60
913.36	11130.71
913.53	11108.18
913.70	11087.70
913.86	11198.29
914.03	11169.62
914.20	10977.11
914.37	11059.03
914.54	11102.04
914.71	11034.46
914.88	11020.12
915.05	11075.42
915.22	10895.19
915.39	10862.43
915.55	10858.33
915.72	10917.72
915.89	10686.30
916.06	10884.95
916.23	10657.63
916.40	10764.12
916.57	10559.33
916.74	10819.42
916.91	10602.33
917.07	10510.18
917.24	10841.95
917.41	10522.46
917.58	10610.53
917.75	10588.00
917.92	10393.44
918.09	10321.76
918.26	10368.87
918.42	10450.78
918.59	10358.63
918.76	10385.25
918.93	10329.95
919.10	10463.07
919.27	10180.45
919.44	10225.51
919.60	9932.65
919.77	10151.78
919.94	9901.93
920.11	10030.95
920.28	10090.34
920.45	10102.63
920.61	9852.78
920.78	9994.09
920.95	10022.76
921.12	9854.83
921.29	9906.02
921.46	9791.34
921.62	9801.58
921.79	9697.13
921.96	9723.76
922.13	9744.24
922.30	9723.76
922.47	9568.11
922.63	9543.53
922.80	9625.45
922.97	9439.09
923.14	9383.79
923.31	9639.79
923.47	9320.31
923.64	9504.62
923.81	9234.29
923.98	9289.59
924.15	9248.63
924.32	9328.50
924.48	9316.21
924.65	9359.22
924.82	9273.20
924.99	9174.90
925.15	8902.52
925.32	9135.99
925.49	9205.62
925.66	8974.20
925.83	8994.68
925.99	9037.69
926.16	8757.11
926.33	8777.59
926.50	8800.12
926.67	8857.46
926.83	8832.89
927.00	8732.54
927.17	8722.30
927.34	8644.48
927.50	8570.75
927.67	8576.89
927.84	8564.61
928.01	8556.41
928.17	8402.82
928.34	8564.61
928.51	8433.54
928.68	8423.30
928.84	8421.25
929.01	8464.25
929.18	8298.37
929.35	8124.29
929.51	8279.94
929.68	8200.07
929.85	8161.16
930.02	8136.58
930.18	8284.03
930.35	8314.75
930.52	8003.46
930.69	7980.93
930.85	8013.70
931.02	8025.99
931.19	7962.50
931.36	7878.54
931.52	7976.84
931.69	7866.25
931.86	7847.82
932.02	7800.71
932.19	7688.07
932.36	7757.71
932.53	7716.75
932.69	7524.24
932.86	7499.66
933.03	7507.85
933.19	7563.15
933.36	7466.89
933.53	7337.87
933.70	7260.05
933.86	7384.98
934.03	7298.96
934.20	7335.82
934.36	7272.34
934.53	7155.60
934.70	7092.12
934.86	6948.76
935.03	7110.55
935.20	6893.46
935.36	7045.01
935.53	6772.63
935.70	6887.32
935.86	6856.60
936.03	6770.58
936.20	6682.52
936.36	6637.47
936.53	6473.63
936.70	6485.92
936.86	6553.50
937.03	6483.87
937.20	6416.29
937.36	6217.63
937.53	6223.78
937.70	6111.14
937.86	6082.47
938.03	6072.23
938.20	6129.57
938.36	5869.48
938.53	5844.90
938.70	5765.03
938.86	5824.42
939.03	5771.18
939.20	5631.91
939.36	5511.08
939.53	5627.82
939.70	5656.49
939.86	5398.45
940.03	5322.67
940.19	5324.72
940.36	5273.52
940.53	5318.57
940.69	5171.12
940.86	5089.20
941.03	5009.33
941.19	4943.80
941.36	4972.47
941.52	4876.21
941.69	4945.84
941.86	4845.49
942.02	4861.88
942.19	4763.58
942.35	4716.47
942.52	4714.42
942.69	4777.91
942.85	4663.22
943.02	4612.03
943.18	4607.93
943.35	4665.27
943.52	4552.63
943.68	4556.73
943.85	4497.34
944.01	4478.91
944.18	4323.26
944.35	4331.45
944.51	4411.32
944.68	4380.61
944.84	4313.02
945.01	4263.87
945.17	4243.39
945.34	4325.31
945.51	4274.11
945.67	4341.69
945.84	4366.27
946.00	4335.55
946.17	4284.35
946.33	4323.26
946.50	4184.00
946.67	4241.34
946.83	4075.46
947.00	4224.96
947.16	4128.70
947.33	4192.19
947.49	4079.55
947.66	4134.85
947.82	4110.27
947.99	4231.10
948.16	4114.37
948.32	4175.81
948.49	4186.05
948.65	4052.93
948.82	4194.24
948.98	4143.04
949.15	4124.61
949.31	4052.93
949.48	4239.30
949.64	4229.06
949.81	4095.94
949.97	4220.86
950.14	4138.94
950.30	4169.66
950.47	4210.62
950.63	4149.18
950.80	4028.35
950.96	4218.82
951.13	4206.53
951.30	4216.77
951.46	4276.16
951.63	4220.86
951.79	4243.39
951.96	4184.00
952.12	4206.53
952.29	4186.05
952.45	4134.85
952.62	4235.20
952.78	4368.32
952.94	4194.24
953.11	4265.92
953.27	4177.86
953.44	4147.14
953.60	4110.27
953.77	4276.16
953.93	4267.97
954.10	4216.77
954.26	4235.20
954.43	4202.43
954.59	4286.40
954.76	4294.59
954.92	4294.59
955.09	4249.54
955.25	4186.05
955.42	4292.54
955.58	4241.34
955.75	4409.28
955.91	4214.72
956.07	4380.61
956.24	4294.59
956.40	4214.72
956.57	4380.61
956.73	4403.13
956.90	4290.49
957.06	4313.02
957.23	4272.06
957.39	4155.33
957.56	4224.96
957.72	4140.99
957.88	4202.43
958.05	4313.02
958.21	4257.73
958.38	4220.86
958.54	4241.34
958.71	4302.78
958.87	4308.93
959.03	4216.77
959.20	4243.39
959.36	4188.10
959.53	4218.82
959.69	4331.45
959.85	4298.69
960.02	4188.10
960.18	4302.78
960.35	4372.41
960.51	4274.11
960.68	4173.76
960.84	4282.30
961.00	4165.57
961.17	4276.16
961.33	4251.58
961.50	4345.79
961.66	4218.82
961.82	4143.04
961.99	4360.13
962.15	4280.25
962.31	4163.52
962.48	4315.07
962.64	4212.67
962.81	4192.19
962.97	4261.82
963.13	4204.48
963.30	4315.07
963.46	4253.63
963.62	4188.10
963.79	4124.61
963.95	4169.66
964.12	4251.58
964.28	4188.10
964.44	4163.52
964.61	4161.47
964.77	4186.05
964.93	4294.59
965.10	4036.55
965.26	4204.48
965.42	4118.47
965.59	4059.07
965.75	4163.52
965.92	4136.90
966.08	4149.18
966.24	4171.71
966.41	4112.32
966.57	4077.51
966.73	4165.57
966.90	4106.18
967.06	4095.94
967.22	4081.60
967.39	4075.46
967.55	4079.55
967.71	4042.69
967.88	4116.42
968.04	4102.08
968.20	4100.03
968.37	4075.46
968.53	3993.54
968.69	4063.17
968.85	3985.35
969.02	4061.12
969.18	4106.18
969.34	4005.83
969.51	4120.51
969.67	4018.11
969.83	3999.68
970.00	4097.99
970.16	3960.77
970.32	3932.10
970.48	4065.22
970.65	3928.00
970.81	3938.24
970.97	3966.92
971.14	4048.83
971.30	3989.44
971.46	3911.62
971.63	3903.43
971.79	3923.91
971.95	3893.19
972.11	3850.18
972.28	3940.29
972.44	3895.24
972.60	3885.00
972.76	3844.04
972.93	3897.28
973.09	3829.70
973.25	3825.61
973.42	3794.89
973.58	3905.48
973.74	3862.47
973.90	3768.26
974.07	3798.98
974.23	3844.04
974.39	3780.55
974.55	3878.85
974.72	3825.61
974.88	3880.90
975.04	3708.87
975.20	3674.06
975.37	3844.04
975.53	3702.73
975.69	3805.13
975.85	3809.22
976.01	3817.41
976.18	3626.95
976.34	3663.82
976.50	3688.39
976.66	3753.93
976.83	3639.24
976.99	3594.19
977.15	3659.72
977.31	3637.19
977.47	3663.82
977.64	3647.43
977.80	3733.45
977.96	3614.66
978.12	3631.05
978.29	3448.78
978.45	3575.75
978.61	3542.99
978.77	3661.77
978.93	3518.41
979.10	3669.96
979.26	3516.36
979.42	3653.58
979.58	3530.70
979.74	3499.98
979.91	3510.22
980.07	3524.55
980.23	3567.56
980.39	3608.52
980.55	3475.40
980.71	3440.59
980.88	3397.58
981.04	3565.51
981.20	3352.52
981.36	3450.83
981.52	3542.99
981.68	3391.44
981.85	3393.48
982.01	3436.49
982.17	3489.74
982.33	3330.00
982.49	3391.44
982.65	3436.49
982.82	3444.68
982.98	3465.16
983.14	3274.70
983.30	3352.52
983.46	3403.72
983.62	3286.99
983.79	3334.09
983.95	3397.58
984.11	3330.00
984.27	3358.67
984.43	3252.17
984.59	3246.03
984.75	3375.05
984.91	3354.57
985.08	3233.74
985.24	3235.79
985.40	3157.97
985.56	3338.19
985.72	3301.33
985.88	3340.24
986.04	3149.78
986.20	3127.25
986.37	3256.27
986.53	3123.15
986.69	3196.88
986.85	3166.16
987.01	3237.84
987.17	3151.82
987.33	3190.74
987.49	3141.58
987.65	3243.98
987.82	3104.72
987.98	3114.96
988.14	3080.14
988.30	3137.49
988.46	3121.10
988.62	3153.87
988.78	3121.10
988.94	3215.31
989.10	3061.71
989.26	3141.58
989.42	3119.06
989.59	2922.45
989.75	3119.06
989.91	3100.62
990.07	2947.03
990.23	3127.25
990.39	3090.38
990.55	3053.52
990.71	3028.95
990.87	3043.28
991.03	3055.57
991.19	3037.14
991.35	3057.62
991.51	2985.94
991.67	3051.47
991.83	3127.25
992.00	3026.90
992.16	2985.94
992.32	3067.86
992.48	2916.31
992.64	3035.09
992.80	3014.61
992.96	2938.84
993.12	2916.31
993.28	2854.87
993.44	2840.53
993.60	2965.46
993.76	2914.26
993.92	2979.79
994.08	2971.60
994.24	2840.53
994.40	2852.82
994.56	2949.08
994.72	2901.97
994.88	2893.78
995.04	2871.25
995.20	2801.62
995.36	2834.39
995.52	2789.33
995.68	2942.93
995.84	2723.80
996.00	2846.68
996.16	2863.06
996.32	2875.35
996.48	2777.05
996.64	2852.82
996.80	2854.87
996.96	2772.95
997.12	2789.33
997.28	2678.74
997.44	2717.65
997.60	2775.00
997.76	2727.89
997.92	2703.32
998.08	2695.13
998.24	2822.10
998.40	2611.16
998.56	2717.65
998.72	2688.98
998.88	2752.47
999.04	2736.09
999.20	2762.71
999.36	2701.27
999.52	2727.89
999.68	2600.92
999.84	2619.35
1000.00	2602.97
1000.16	2654.17
1000.32	2621.40
1000.48	2731.99
1000.64	2623.45
1000.80	2555.86
1000.95	2602.97
1001.11	2607.06
1001.27	2516.95
1001.43	2678.74
1001.59	2572.25
1001.75	2637.78
1001.91	2516.95
1002.07	2570.20
1002.23	2566.10
1002.39	2586.58
1002.55	2516.95
1002.71	2619.35
1002.87	2572.25
1003.03	2449.37
1003.19	2525.15
1003.34	2543.58
1003.50	2541.53
1003.66	2559.96
1003.82	2568.15
1003.98	2480.09
1004.14	2480.09
1004.30	2535.39
1004.46	2451.42
1004.62	2416.60
1004.78	2467.80
1004.94	2521.05
1005.09	2504.67
1005.25	2488.28
1005.41	2426.84
1005.57	2457.56
1005.73	2412.51
1005.89	2408.41
1006.05	2443.23
1006.21	2480.09
1006.37	2426.84
1006.52	2471.90
1006.68	2361.31
1006.84	2447.32
1007.00	2404.32
1007.16	2420.70
1007.32	2340.83
1007.48	2428.89
1007.64	2502.62
1007.79	2383.84
1007.95	2346.97
1008.11	2369.50
1008.27	2357.21
1008.43	2437.08
1008.59	2398.17
1008.75	2379.74
1008.91	2375.64
1009.06	2310.11
1009.22	2379.74
1009.38	2402.27
1009.54	2312.16
1009.70	2383.84
1009.86	2383.84
1010.01	2301.92
1010.17	2324.44
1010.33	2301.92
1010.49	2230.24
1010.65	2301.92
1010.81	2326.49
1010.96	2244.57
1011.12	2242.53
1011.28	2234.33
1011.44	2346.97
1011.60	2248.67
1011.76	2211.81
1011.91	2310.11
1012.07	2199.52
1012.23	2269.15
1012.39	2176.99
1012.55	2240.48
1012.71	2152.42
1012.86	2193.37
1013.02	2146.27
1013.18	2213.85
1013.34	2197.47
1013.50	2271.20
1013.65	2236.38
1013.81	2238.43
1013.97	2078.69
1014.13	2281.44
1014.29	2164.70
1014.44	2197.47
1014.60	2197.47
1014.76	2183.13
1014.92	2168.80
1015.07	2144.22
1015.23	2193.37
1015.39	2101.22
1015.55	2131.94
1015.71	2142.18
1015.86	2187.23
1016.02	2164.70
1016.18	2119.65
1016.34	2076.64
1016.49	2072.54
1016.65	2103.26
1016.81	2154.46
1016.97	2060.26
1017.12	2146.27
1017.28	2004.96
1017.44	2127.84
1017.60	2047.97
1017.75	2101.22
1017.91	2140.13
1018.07	2068.45
1018.23	2037.73
1018.38	2056.16
1018.54	2043.87
1018.70	2007.01
1018.86	1996.77
1019.01	1990.63
1019.17	2129.89
1019.33	2162.66
1019.49	2064.35
1019.64	2066.40
1019.80	1978.34
1019.96	2115.55
1020.12	2039.78
1020.27	2070.50
1020.43	2019.30
1020.59	2002.91
1020.74	1994.72
1020.90	2097.12
1021.06	1925.09
1021.22	2031.58
1021.37	1994.72
1021.53	1961.95
1021.69	2000.87
1021.84	1990.63
1022.00	1974.24
1022.16	1974.24
1022.31	1976.29
1022.47	2031.58
1022.63	2043.87
1022.79	1953.76
1022.94	1925.09
1023.10	1976.29
1023.26	1966.05
1023.41	1949.67
1023.57	1945.57
1023.73	1910.75
1023.88	1972.19
1024.04	1933.28
1024.20	2023.39
1024.35	1957.86
1024.51	1939.43
1024.67	1916.90
1024.82	1929.19
1024.98	1902.56
1025.14	1949.67
1025.29	1984.48
1025.45	2017.25
1025.61	1877.99
1025.76	1845.22
1025.92	1902.56
1026.08	1908.71
1026.23	1880.04
1026.39	1884.13
1026.55	1923.04
1026.70	1841.12
1026.86	1957.86
1027.02	1888.23
1027.17	1898.47
1027.33	1877.99
1027.48	1929.19
1027.64	1822.69
1027.80	1798.12
1027.95	1888.23
1028.11	1832.93
1028.27	1886.18
1028.42	1896.42
1028.58	1839.08
1028.73	1816.55
1028.89	1802.21
1029.05	1925.09
1029.20	1892.32
>>>>>End Processed Spectral Data<<<<<
