SpectraSuite Data File
++++++++++++++++++++++++++++++++++++
Date: Tue Jun 13 11:58:31 CEST 2017
User: INFO_000
Dark Spectrum Present: No
Reference Spectrum Present: No
Number of Sampled Component Spectra: 1
Spectrometers: USB4H00879
Integration Time (usec): 30000 (USB4H00879)
Spectra Averaged: 1 (USB4H00879)
Boxcar Smoothing: 0 (USB4H00879)
Correct for Electrical Dark: No (USB4H00879)
Strobe/Lamp Enabled: No (USB4H00879)
Correct for Detector Non-linearity: No (USB4H00879)
Correct for Stray Light: No (USB4H00879)
Number of Pixels in Processed Spectrum: 3648
>>>>>Begin Processed Spectral Data<<<<<
345.13	1351.66
345.34	1351.66
345.56	1351.66
345.78	1277.93
345.99	1335.28
346.21	1531.88
346.42	1501.16
346.64	1525.74
346.86	1552.36
347.07	1507.30
347.29	1460.20
347.50	1435.63
347.72	1527.78
347.94	1552.36
348.15	1486.83
348.37	1427.43
348.59	1505.26
348.80	1466.35
349.02	1554.41
349.23	1511.40
349.45	1562.60
349.67	1648.61
349.88	1595.37
350.10	1665.00
350.31	1634.28
350.53	1611.75
350.75	1660.90
350.96	1554.41
351.18	1611.75
351.39	1611.75
351.61	1675.24
351.82	1613.80
352.04	1572.84
352.26	1619.94
352.47	1591.27
352.69	1607.66
352.90	1546.22
353.12	1662.95
353.34	1619.94
353.55	1699.81
353.77	1785.83
353.98	1617.90
354.20	1593.32
354.41	1634.28
354.63	1660.90
354.85	1748.97
355.06	1609.70
355.28	1609.70
355.49	1716.20
355.71	1669.09
355.92	1613.80
356.14	1652.71
356.35	1621.99
356.57	1654.76
356.79	1679.33
357.00	1642.47
357.22	1677.29
357.43	1650.66
357.65	1624.04
357.86	1617.90
358.08	1644.52
358.29	1654.76
358.51	1665.00
358.72	1712.10
358.94	1644.52
359.16	1621.99
359.37	1652.71
359.59	1617.90
359.80	1757.16
360.02	1648.61
360.23	1626.09
360.45	1669.09
360.66	1687.53
360.88	1675.24
361.09	1705.96
361.31	1638.38
361.52	1751.01
361.74	1697.77
361.95	1728.49
362.17	1638.38
362.38	1708.01
362.60	1662.95
362.81	1644.52
363.03	1673.19
363.24	1703.91
363.46	1769.44
363.67	1755.11
363.89	1669.09
364.10	1695.72
364.32	1687.53
364.53	1720.29
364.75	1593.32
364.96	1710.05
365.18	1718.25
365.39	1773.54
365.61	1689.57
365.82	1744.87
366.04	1771.49
366.25	1687.53
366.47	1804.26
366.68	1697.77
366.90	1748.97
367.11	1791.97
367.33	1736.68
367.54	1832.93
367.76	1783.78
367.97	1796.07
368.19	1810.40
368.40	1781.73
368.62	1849.32
368.83	1697.77
369.05	1732.58
369.26	1656.81
369.48	1748.97
369.69	1767.40
369.91	1775.59
370.12	1755.11
370.33	1785.83
370.55	1742.82
370.76	1794.02
370.98	1826.79
371.19	1763.30
371.41	1748.97
371.62	1798.12
371.84	1794.02
372.05	1882.08
372.27	1773.54
372.48	1683.43
372.69	1763.30
372.91	1812.45
373.12	1839.08
373.34	1820.64
373.55	1753.06
373.77	1826.79
373.98	1789.92
374.20	1837.03
374.41	1785.83
374.62	1753.06
374.84	1839.08
375.05	1796.07
375.27	1867.75
375.48	1822.69
375.70	1869.80
375.91	1865.70
376.12	1894.37
376.34	1877.99
376.55	1877.99
376.77	1882.08
376.98	1830.88
377.19	1945.57
377.41	1873.89
377.62	1859.56
377.84	1867.75
378.05	1896.42
378.27	1916.90
378.48	2023.39
378.69	1947.62
378.91	1939.43
379.12	1851.36
379.34	1910.75
379.55	1970.15
379.76	1941.47
379.98	1920.99
380.19	1925.09
380.41	1972.19
380.62	1957.86
380.83	1986.53
381.05	1925.09
381.26	2078.69
381.47	1882.08
381.69	1947.62
381.90	2078.69
382.12	1955.81
382.33	1929.19
382.54	1988.58
382.76	1953.76
382.97	1925.09
383.19	2019.30
383.40	1992.67
383.61	1904.61
383.83	2037.73
384.04	1972.19
384.25	2021.35
384.47	2047.97
384.68	2017.25
384.89	2093.02
385.11	2021.35
385.32	2058.21
385.54	1945.57
385.75	2017.25
385.96	2074.59
386.18	2088.93
386.39	2140.13
386.60	2015.20
386.82	2064.35
387.03	2052.06
387.24	2148.32
387.46	2154.46
387.67	2103.26
387.88	2185.18
388.10	2099.17
388.31	2193.37
388.52	2185.18
388.74	2197.47
388.95	2162.66
389.16	2133.98
389.38	2197.47
389.59	2176.99
389.80	2211.81
390.02	2187.23
390.23	2306.01
390.44	2179.04
390.66	2181.09
390.87	2176.99
391.08	2172.89
391.30	2340.83
391.51	2232.29
391.72	2279.39
391.94	2295.77
392.15	2187.23
392.36	2244.57
392.58	2250.72
392.79	2328.54
393.00	2244.57
393.22	2375.64
393.43	2254.81
393.64	2312.16
393.85	2375.64
394.07	2330.59
394.28	2275.29
394.49	2283.49
394.71	2295.77
394.92	2332.64
395.13	2324.44
395.35	2381.79
395.56	2301.92
395.77	2377.69
395.98	2326.49
396.20	2369.50
396.41	2408.41
396.62	2459.61
396.84	2349.02
397.05	2430.94
397.26	2473.95
397.47	2492.38
397.69	2404.32
397.90	2574.30
398.11	2471.90
398.32	2535.39
398.54	2463.71
398.75	2484.19
398.96	2488.28
399.18	2670.55
399.39	2537.43
399.60	2553.82
399.81	2656.22
400.03	2527.19
400.24	2693.08
400.45	2605.02
400.66	2664.41
400.88	2559.96
401.09	2578.39
401.30	2639.83
401.51	2639.83
401.73	2588.63
401.94	2711.51
402.15	2701.27
402.36	2721.75
402.58	2676.70
402.79	2682.84
403.00	2695.13
403.21	2709.46
403.43	2703.32
403.64	2809.81
403.85	2715.61
404.06	2731.99
404.27	2705.37
404.49	2688.98
404.70	2783.19
404.91	2729.94
405.12	2791.38
405.34	2809.81
405.55	2793.43
405.76	2787.29
405.97	2852.82
406.19	2918.36
406.40	2807.77
406.61	2865.11
406.82	2916.31
407.03	2850.77
407.25	2873.30
407.46	2924.50
407.67	2838.48
407.88	2906.07
408.09	2883.54
408.31	2865.11
408.52	2865.11
408.73	2873.30
408.94	2904.02
409.15	2994.13
409.37	2961.36
409.58	2938.84
409.79	3008.47
410.00	3094.48
410.21	2963.41
410.43	2959.31
410.64	2981.84
410.85	3108.82
411.06	3012.56
411.27	3049.43
411.48	3106.77
411.70	3057.62
411.91	3110.86
412.12	3041.23
412.33	3131.34
412.54	3104.72
412.76	3170.26
412.97	3221.45
413.18	3174.35
413.39	3096.53
413.60	3223.50
413.81	3114.96
414.03	3178.45
414.24	3164.11
414.45	3276.75
414.66	3127.25
414.87	3377.10
415.08	3182.54
415.30	3315.66
415.51	3262.41
415.72	3348.43
415.93	3260.37
416.14	3256.27
416.35	3297.23
416.56	3350.48
416.78	3334.09
416.99	3272.65
417.20	3342.28
417.41	3401.68
417.62	3348.43
417.83	3477.45
418.04	3395.53
418.26	3327.95
418.47	3454.92
418.68	3469.26
418.89	3456.97
419.10	3411.92
419.31	3514.31
419.52	3540.94
419.73	3510.22
419.95	3610.57
420.16	3495.88
420.37	3477.45
420.58	3569.61
420.79	3551.18
421.00	3561.42
421.21	3573.71
421.42	3495.88
421.63	3577.80
421.85	3641.29
422.06	3694.54
422.27	3522.51
422.48	3610.57
422.69	3717.06
422.90	3839.94
423.11	3737.54
423.32	3743.69
423.53	3801.03
423.75	3897.28
423.96	3831.75
424.17	3887.04
424.38	3971.01
424.59	3856.33
424.80	3889.09
425.01	3891.14
425.22	3841.99
425.43	4028.35
425.64	4091.84
425.85	4026.31
426.06	3962.82
426.28	3936.20
426.49	3975.11
426.70	4065.22
426.91	3995.59
427.12	4147.14
427.33	4018.11
427.54	4014.02
427.75	4212.67
427.96	4259.78
428.17	4124.61
428.38	4177.86
428.59	4143.04
428.80	4237.25
429.01	4341.69
429.23	4210.62
429.44	4487.10
429.65	4272.06
429.86	4337.60
430.07	4126.66
430.28	4323.26
430.49	4376.51
430.70	4335.55
430.91	4409.28
431.12	4353.98
431.33	4530.11
431.54	4495.29
431.75	4566.97
431.96	4431.80
432.17	4571.07
432.38	4493.24
432.59	4693.94
432.80	4569.02
433.01	4595.64
433.22	4704.18
433.43	4620.22
433.64	4661.18
433.85	4663.22
434.06	4870.07
434.27	4695.99
434.49	4788.15
434.70	4857.78
434.91	4904.89
435.12	4829.11
435.33	4892.60
435.54	4865.97
435.75	4736.95
435.96	4655.03
436.17	4806.58
436.38	4831.16
436.59	4939.70
436.80	4951.99
437.01	5046.20
437.22	5140.40
437.43	4986.80
437.64	4835.25
437.85	4958.13
438.06	5124.02
438.27	4943.80
438.48	5048.24
438.69	5101.49
438.90	5214.13
439.11	5097.39
439.32	5195.70
439.53	5113.78
439.74	5162.93
439.95	5287.86
440.16	5244.85
440.37	5220.27
440.57	5171.12
440.78	5285.81
440.99	5371.82
441.20	5203.89
441.41	5261.23
441.62	5343.15
441.83	5222.32
442.04	5285.81
442.25	5449.64
442.46	5418.93
442.67	5590.95
442.88	5767.08
443.09	5425.07
443.30	5480.36
443.51	5488.56
443.72	5578.67
443.93	5523.37
444.14	5695.40
444.35	5371.82
444.56	5744.55
444.77	5762.98
444.98	5552.04
445.19	5724.07
445.40	5679.02
445.61	5652.39
445.81	5842.85
446.02	5803.94
446.23	5715.88
446.44	5582.76
446.65	5822.38
446.86	5797.80
447.07	5730.22
447.28	6039.46
447.49	5924.77
447.70	5824.42
447.91	5871.53
448.12	5908.39
448.33	6029.22
448.54	5963.68
448.74	5865.38
448.95	6045.60
449.16	6029.22
449.37	6184.87
449.58	5982.12
449.79	6342.56
450.00	6055.84
450.21	6309.79
450.42	6383.52
450.63	6180.77
450.84	6109.09
451.05	6457.25
451.25	6191.01
451.46	6285.22
451.67	6281.12
451.88	6481.82
452.09	6383.52
452.30	6242.21
452.51	6514.59
452.72	6498.20
452.93	6514.59
453.13	6469.53
453.34	6447.01
453.55	6522.78
453.76	6508.44
453.97	6928.28
454.18	6795.16
454.39	6737.82
454.60	6705.05
454.81	6664.09
455.01	6856.60
455.22	6664.09
455.43	6768.54
455.64	7020.44
455.85	7053.20
456.06	7151.51
456.27	6936.47
456.48	6924.18
456.68	7018.39
456.89	7069.59
457.10	7157.65
457.31	7149.46
457.52	6948.76
457.73	7241.62
457.94	7405.46
458.14	7241.62
458.35	7427.98
458.56	7258.00
458.77	7436.17
458.98	7532.43
459.19	7493.52
459.39	7536.52
459.60	7731.08
459.81	7509.90
460.02	7835.53
460.23	7577.48
460.44	7772.04
460.65	7864.20
460.85	7718.79
461.06	7966.60
461.27	7769.99
461.48	8175.49
461.69	8255.36
461.89	7864.20
462.10	7800.71
462.31	7847.82
462.52	7982.98
462.73	7929.74
462.94	8308.61
463.14	8265.60
463.35	8050.57
463.56	8433.54
463.77	8251.27
463.98	8236.93
464.18	8247.17
464.39	8419.20
464.60	8636.28
464.81	8501.12
465.02	8523.65
465.23	8845.18
465.43	8714.11
465.64	9119.60
465.85	8755.07
466.06	8763.26
466.27	9037.69
466.47	9082.74
466.68	8980.34
466.89	9013.11
467.10	9119.60
467.30	9023.35
467.51	8966.01
467.72	9437.04
467.93	9230.20
468.14	9344.88
468.34	9582.45
468.55	9389.94
468.76	9467.76
468.97	9342.83
469.17	9643.88
469.38	9744.24
469.59	9813.87
469.80	9672.56
470.01	9838.44
470.21	9568.11
470.42	10164.07
470.63	10061.67
470.84	9856.87
471.04	10174.31
471.25	10254.18
471.46	10291.04
471.67	10411.87
471.87	10116.97
472.08	10520.42
472.29	10676.06
472.50	10180.45
472.70	10458.98
472.91	10680.16
473.12	10717.02
473.33	10819.42
473.53	10927.96
473.74	10739.55
473.95	10975.06
474.16	11263.83
474.36	11050.84
474.57	11229.01
474.78	11401.04
474.99	11282.26
475.19	11351.89
475.40	11581.26
475.61	11427.67
475.81	11683.66
476.02	11835.21
476.23	11847.50
476.44	11835.21
476.64	12083.02
476.85	12226.37
477.06	11999.05
477.27	12246.85
477.47	12431.17
477.68	12384.07
477.89	12388.16
478.09	12699.45
478.30	12457.79
478.51	12558.14
478.71	12918.59
478.92	12971.83
479.13	12851.00
479.34	13104.95
479.54	13137.72
479.75	13395.76
479.96	13129.53
480.16	13274.93
480.37	13274.93
480.58	13451.06
480.78	13631.28
480.99	13606.70
481.20	13522.74
481.41	13645.62
481.61	13907.76
481.82	14081.83
482.03	14135.08
482.23	13877.04
482.44	14034.73
482.65	14409.51
482.85	14466.85
483.06	14409.51
483.27	14501.67
483.47	14331.69
483.68	14849.82
483.89	14751.52
484.09	14559.01
484.30	14636.83
484.51	15005.47
484.71	15161.11
484.92	15116.06
485.13	15142.68
485.33	15464.21
485.54	15490.84
485.75	15503.12
485.95	15298.33
486.16	15513.36
486.37	15701.78
486.57	15679.25
486.78	15724.30
486.98	15877.90
487.19	16070.41
487.40	16176.91
487.60	16000.78
487.81	16252.68
488.02	16191.24
488.22	16346.89
488.43	16439.05
488.64	16471.81
488.84	16592.64
489.05	16682.75
489.25	16848.64
489.46	16891.65
489.67	16936.70
489.87	16965.37
490.08	17012.48
490.29	17278.71
490.49	17479.41
490.70	17305.34
490.90	17395.45
491.11	17544.95
491.32	17633.01
491.52	17676.02
491.73	17860.34
491.94	17712.88
492.14	17616.63
492.35	17921.77
492.55	18065.13
492.76	18192.11
492.97	18204.39
493.17	18140.91
493.38	18188.01
493.58	18407.14
493.79	18413.29
494.00	18327.27
494.20	18675.43
494.41	18683.62
494.61	18929.38
494.82	18941.66
495.02	18663.14
495.23	18726.63
495.44	18917.09
495.64	19461.85
495.85	18956.00
496.05	19226.33
496.26	19150.56
496.47	19412.70
496.67	19214.04
496.88	19691.22
497.08	19377.88
497.29	19539.67
497.49	19488.47
497.70	19881.68
497.91	19789.52
498.11	19762.90
498.32	20006.61
498.52	19799.76
498.73	20281.03
498.93	20027.09
499.14	20111.05
499.34	20109.01
499.55	20348.62
499.76	20160.20
499.96	20539.08
500.17	20614.85
500.37	20596.42
500.58	20924.10
500.78	20827.84
500.99	20858.56
501.19	21010.11
501.40	21020.35
501.60	21024.45
501.81	21214.91
502.02	21055.17
502.22	21137.09
502.43	20960.96
502.63	21616.31
502.84	21214.91
503.04	21456.57
503.25	21290.68
503.45	21284.54
503.66	21612.21
503.86	21536.44
504.07	21800.63
504.27	21786.29
504.48	22032.05
504.68	21946.03
504.89	22030.00
505.09	21943.99
505.30	21774.00
505.50	21841.59
505.71	21950.13
505.91	22263.47
506.12	22300.33
506.32	22507.18
506.53	22263.47
506.73	22415.02
506.94	22372.01
507.14	22253.23
507.35	22523.56
507.55	22218.41
507.76	22648.49
507.96	22582.95
508.17	22875.81
508.37	22703.78
508.58	22849.19
508.78	22591.14
508.99	22601.38
509.19	22998.69
509.40	23000.74
509.60	23029.41
509.81	23119.52
510.01	23160.48
510.22	23307.93
510.42	23176.86
510.63	22996.64
510.83	22959.78
511.04	23187.10
511.24	23307.93
511.44	23500.44
511.65	23340.70
511.85	23189.15
512.06	23465.63
512.26	23305.88
512.47	23547.54
512.67	23660.18
512.88	23482.01
513.08	23570.07
513.29	23864.98
513.49	23901.84
513.69	23756.44
513.90	23570.07
514.10	23729.81
514.31	24012.43
514.51	24018.58
514.72	23860.88
514.92	23766.68
515.13	24270.48
515.33	24186.51
515.53	24395.40
515.74	24084.11
515.94	24487.56
516.15	24102.54
516.35	24630.92
516.56	24331.92
516.76	24612.49
516.96	24237.71
517.17	24866.44
517.37	24770.18
517.58	24710.79
517.78	24561.29
517.99	24909.44
518.19	24964.74
518.39	25153.15
518.60	24897.16
518.80	24852.10
519.01	24942.21
519.21	24948.36
519.41	25450.11
519.62	25284.22
519.82	25577.08
520.03	25261.69
520.23	25742.97
520.43	25525.88
520.64	25540.22
520.84	25802.36
521.05	25540.22
521.25	25710.20
521.45	25894.52
521.66	25841.27
521.86	25802.36
522.07	25839.22
522.27	25904.76
522.47	26154.61
522.68	26109.55
522.88	25931.38
523.08	26316.40
523.29	25902.71
523.49	26435.18
523.70	26381.93
523.90	26207.86
524.10	26531.44
524.31	26353.26
524.51	26031.73
524.71	26564.20
524.92	26451.56
525.12	26709.61
525.33	26830.44
525.53	26799.72
525.73	26818.15
525.94	26992.23
526.14	27076.19
526.34	27047.52
526.55	27299.42
526.75	27299.42
526.95	27364.96
527.16	27391.58
527.36	27592.28
527.56	27422.30
527.77	28036.69
527.97	27477.60
528.17	27543.13
528.38	27764.31
528.58	27934.29
528.78	27911.77
528.99	27876.95
529.19	28026.45
529.39	27997.78
529.60	28264.02
529.80	28036.69
530.00	27940.44
530.21	28429.90
530.41	28540.49
530.61	28210.77
530.82	28493.39
531.02	28407.37
531.22	28601.93
531.43	28268.11
531.63	28718.67
531.83	29054.53
532.04	29148.74
532.24	29058.63
532.44	29081.16
532.64	29275.71
532.85	29150.79
533.05	29359.68
533.25	29277.76
533.46	29115.97
533.66	29779.51
533.86	29742.65
534.07	29865.53
534.27	29687.36
534.47	29724.22
534.67	29941.30
534.88	29900.34
535.08	30094.90
535.28	30268.98
535.49	30275.12
535.69	30627.37
535.89	30316.08
536.09	30369.33
536.30	30783.02
536.50	30395.95
536.70	30576.17
536.91	30305.84
537.11	30856.75
537.31	30592.56
537.51	30729.77
537.72	31262.24
537.92	31209.00
538.12	30920.23
538.32	31313.44
538.53	31471.14
538.73	30932.52
538.93	31252.00
539.13	31215.14
539.34	31161.89
539.54	31235.62
539.74	31901.21
539.94	31614.49
540.15	31340.07
540.35	32030.23
540.55	31438.37
540.75	31843.87
540.96	31559.20
541.16	31774.24
541.36	31829.53
541.56	31526.43
541.77	32110.10
541.97	31929.88
542.17	32224.79
542.37	32235.03
542.58	32321.04
542.78	32341.52
542.98	32167.45
543.18	32740.88
543.38	32917.00
543.59	32398.87
543.79	32810.51
543.99	32574.99
544.19	32728.59
544.40	32704.01
544.60	33162.76
544.80	32779.79
545.00	32726.54
545.20	33275.40
545.41	33203.72
545.61	33160.71
545.81	33252.87
546.01	33476.10
546.21	33109.51
546.42	33375.75
546.62	33359.36
546.82	33201.67
547.02	33502.72
547.22	33680.89
547.43	33494.53
547.63	33234.44
547.83	33560.06
548.03	33297.92
548.23	33445.38
548.44	33375.75
548.64	33588.74
548.84	33789.44
549.04	33756.67
549.24	33699.33
549.45	33654.27
549.65	33551.87
549.85	33934.84
550.05	33902.07
550.25	34014.71
550.45	33967.61
550.66	34196.98
550.86	34076.15
551.06	34225.65
551.26	34471.41
551.46	34117.11
551.66	34547.18
551.87	34121.21
552.07	34334.20
552.27	34330.10
552.47	34567.66
552.67	34774.51
552.87	34002.43
553.07	34360.82
553.28	34852.33
553.48	34518.51
553.68	34385.40
553.88	34735.60
554.08	34821.61
554.28	34442.74
554.48	34582.00
554.69	34655.73
554.89	34444.79
555.09	34770.41
555.29	34715.12
555.49	34907.63
555.69	34680.30
555.89	34633.20
556.10	34776.56
556.30	34717.17
556.50	34825.71
556.70	34684.40
556.90	35200.49
557.10	34743.79
557.30	34964.97
557.50	35007.98
557.70	35304.93
557.91	35519.97
558.11	35671.52
558.31	35231.21
558.51	35163.62
558.71	35380.71
558.91	35012.07
559.11	34909.68
559.31	35192.30
559.51	34981.35
559.72	35413.48
559.92	35548.64
560.12	35225.06
560.32	35630.56
560.52	34926.06
560.72	35327.46
560.92	35376.61
561.12	35436.00
561.32	35796.45
561.52	35151.34
561.72	35880.41
561.93	35255.78
562.13	35343.84
562.33	35313.13
562.53	35997.15
562.73	35323.36
562.93	35479.01
563.13	35388.90
563.33	35304.93
563.53	35706.34
563.73	35483.11
563.93	35651.04
564.13	36083.16
564.33	36066.78
564.53	35556.83
564.74	35837.41
564.94	35943.90
565.14	35982.81
565.34	35767.77
565.54	36351.45
565.74	35978.72
565.94	36179.42
566.14	35818.97
566.34	36001.24
566.54	36050.39
566.74	35874.27
566.94	36097.50
567.14	36160.98
567.34	36101.59
567.54	36222.42
567.74	35694.05
567.94	36163.03
568.14	36195.80
568.34	36044.25
568.54	36062.68
568.74	36214.23
568.94	36437.46
569.14	36347.35
569.34	36435.41
569.54	36220.38
569.75	36503.00
569.95	36199.90
570.15	36802.00
570.35	36367.83
570.55	36247.00
570.75	36431.32
570.95	36513.23
571.15	36382.16
571.35	36658.64
571.55	36613.59
571.75	36556.24
571.95	36724.18
572.15	36527.57
572.35	36675.02
572.55	36412.88
572.75	36877.77
572.95	36517.33
573.15	36894.16
573.35	36765.14
573.55	36363.73
573.75	36611.54
573.95	36343.25
574.15	36777.42
574.35	36996.56
574.55	36728.27
574.75	36711.89
574.95	36908.49
575.15	36672.98
575.34	36789.71
575.54	37193.16
575.74	36668.88
575.94	37201.35
576.14	36842.96
576.34	37193.16
576.54	37189.06
576.74	37035.47
576.94	37342.66
577.14	37340.61
577.34	37062.09
577.54	37047.75
577.74	37559.75
577.94	37111.24
578.14	37039.56
578.34	37262.79
578.54	37094.86
578.74	37096.91
578.94	37371.33
579.14	37166.54
579.34	37465.54
579.54	37545.41
579.74	37379.53
579.94	37858.75
580.13	38020.54
580.33	37725.63
580.53	37651.91
580.73	38038.97
580.93	37604.80
581.13	37565.89
581.33	37686.72
581.53	37588.42
581.73	37588.42
581.93	37813.70
582.13	37887.42
582.33	38018.49
582.53	37795.26
582.73	38022.59
582.92	37879.23
583.12	37971.39
583.32	37828.03
583.52	37690.82
583.72	38145.47
583.92	37633.47
584.12	37944.76
584.32	38442.42
584.52	38051.26
584.72	38354.36
584.92	38434.23
585.11	38522.29
585.31	38190.52
585.51	38663.60
585.71	38102.46
585.91	38385.08
586.11	38026.68
586.31	38020.54
586.51	37762.50
586.71	38374.84
586.91	38286.78
587.10	38460.85
587.30	38591.92
587.50	38454.71
587.70	38307.26
587.90	38639.03
588.10	38610.35
588.30	38221.24
588.50	38641.07
588.69	38761.90
588.89	38583.73
589.09	38749.62
589.29	38970.80
589.49	39097.77
589.69	38563.25
589.89	39108.01
590.08	38636.98
590.28	38872.49
590.48	38811.06
590.68	38612.40
590.88	38579.64
591.08	38780.34
591.28	38915.50
591.47	39325.10
591.67	39046.57
591.87	39081.39
592.07	38847.92
592.27	38972.85
592.47	39015.85
592.67	39042.48
592.86	39071.15
593.06	39464.36
593.26	39237.03
593.46	39130.54
593.66	39128.49
593.86	39007.66
594.05	38591.92
594.25	39474.60
594.45	38774.19
594.65	38706.61
594.85	38720.95
595.05	39101.87
595.24	39269.80
595.44	38972.85
595.64	39409.06
595.84	39349.67
596.04	39433.64
596.23	39183.79
596.43	39644.58
596.63	39099.82
596.83	39253.42
597.03	39613.86
597.22	39605.67
597.42	39085.48
597.62	39372.20
597.82	39577.00
598.02	39353.77
598.21	39585.19
598.41	39032.24
598.61	39171.50
598.81	39910.82
599.01	39712.16
599.20	39562.66
599.40	39538.08
599.60	39794.08
599.80	39525.80
600.00	39650.72
600.19	40015.26
600.39	39789.98
600.59	40142.24
600.79	39740.83
600.98	39757.22
601.18	39800.22
601.38	40062.36
601.58	40213.91
601.78	40258.97
601.97	39822.75
602.17	40480.15
602.37	39884.19
602.57	40168.86
602.76	40275.35
602.96	39970.21
603.16	40222.11
603.36	40338.84
603.55	40582.55
603.75	39914.91
603.95	40132.00
604.15	39937.44
604.34	40332.70
604.54	40295.83
604.74	40514.97
604.94	40361.37
605.13	40408.47
605.33	40420.76
605.53	40252.83
605.73	40326.55
605.92	40035.74
606.12	40721.81
606.32	40590.74
606.52	40387.99
606.71	40564.12
606.91	40730.00
607.11	40574.36
607.30	40529.30
607.50	40359.32
607.70	40697.24
607.90	40482.20
608.09	40285.59
608.29	40349.08
608.49	40871.31
608.68	40447.38
608.88	40959.38
609.08	40551.83
609.28	40687.00
609.47	40566.16
609.67	40863.12
609.87	40697.24
610.06	40787.35
610.26	40742.29
610.46	40779.15
610.66	40668.56
610.85	40850.83
611.05	41129.36
611.25	40875.41
611.44	40760.72
611.64	41024.91
611.84	40414.62
612.03	40600.98
612.23	40725.91
612.43	41053.58
612.62	40887.70
612.82	40758.67
613.02	41176.46
613.21	40906.13
613.41	40783.25
613.61	40680.85
613.80	40711.57
614.00	40668.56
614.20	41096.59
614.39	40379.80
614.59	40775.06
614.79	40596.88
614.98	40861.07
615.18	40359.32
615.38	40840.59
615.57	40420.76
615.77	41016.72
615.97	40951.18
616.16	40750.48
616.36	40709.52
616.56	40572.31
616.75	40517.01
616.95	40218.01
617.15	40713.62
617.34	40578.45
617.54	40480.15
617.74	40807.83
617.93	40725.91
618.13	40420.76
618.32	40734.10
618.52	40293.79
618.72	40592.79
618.91	40684.95
619.11	40136.09
619.31	40168.86
619.50	40197.53
619.70	40025.50
619.90	40463.77
620.09	40605.08
620.29	40267.16
620.48	40525.21
620.68	40586.64
620.88	40379.80
621.07	40387.99
621.27	40486.29
621.46	40428.95
621.66	40338.84
621.86	40281.50
622.05	40291.74
622.25	40514.97
622.44	40412.57
622.64	40244.63
622.84	40041.88
623.03	39923.10
623.23	40670.61
623.42	40310.17
623.62	40564.12
623.82	40308.12
624.01	39951.77
624.21	40074.65
624.40	40076.70
624.60	40185.24
624.80	40172.96
624.99	39890.34
625.19	40138.14
625.38	39871.90
625.58	40132.00
625.77	40179.10
625.97	39888.29
626.17	40201.63
626.36	40168.86
626.56	40209.82
626.75	39605.67
626.95	40175.00
627.14	39675.30
627.34	40007.07
627.54	39933.34
627.73	39998.88
627.93	39955.87
628.12	39593.38
628.32	39775.65
628.51	39507.37
628.71	39937.44
628.90	39753.12
629.10	39826.85
629.30	39873.95
629.49	40170.91
629.69	39533.99
629.88	39708.07
630.08	40244.63
630.27	39789.98
630.47	39490.98
630.66	39407.01
630.86	39787.94
631.05	39652.77
631.25	40109.47
631.44	39820.70
631.64	39499.17
631.84	39865.76
632.03	40052.12
632.23	39906.72
632.42	40115.61
632.62	39652.77
632.81	39476.65
633.01	39357.86
633.20	39617.96
633.40	39863.71
633.59	39601.57
633.79	39536.04
633.98	39435.69
634.18	39581.09
634.37	39673.25
634.57	39458.21
634.76	39863.71
634.96	39310.76
635.15	39464.36
635.35	39716.26
635.54	39628.20
635.74	39923.10
635.93	39318.95
636.13	39644.58
636.32	39765.41
636.52	39220.65
636.71	39407.01
636.91	39480.74
637.10	39679.39
637.30	39173.55
637.49	39538.08
637.69	39323.05
637.88	39720.35
638.08	39187.88
638.27	39599.52
638.46	39480.74
638.66	38925.74
638.85	39398.82
639.05	39001.52
639.24	39507.37
639.44	38923.69
639.63	39593.38
639.83	39521.70
640.02	39867.81
640.22	39300.52
640.41	39245.23
640.61	38999.47
640.80	39200.17
640.99	39230.89
641.19	40080.80
641.38	39478.69
641.58	39140.78
641.77	39062.96
641.97	39122.35
642.16	38958.51
642.36	39452.07
642.55	39003.56
642.74	39271.85
642.94	39286.18
643.13	39523.75
643.33	39345.58
643.52	39357.86
643.72	39550.37
643.91	39253.42
644.10	39497.13
644.30	39277.99
644.49	39222.70
644.69	39411.11
644.88	39376.30
645.08	39005.61
645.27	39263.66
645.46	38995.37
645.66	39439.78
645.85	39343.53
646.05	39024.04
646.24	39396.77
646.43	39398.82
646.63	39286.18
646.82	39601.57
647.02	39171.50
647.21	40019.36
647.40	39275.94
647.60	39630.24
647.79	39282.09
647.99	39091.63
648.18	39189.93
648.37	39681.44
648.57	39194.03
648.76	39579.04
648.96	39060.91
649.15	39228.84
649.34	39828.90
649.54	39554.47
649.73	39169.45
649.92	39318.95
650.12	39298.47
650.31	39302.57
650.51	39224.75
650.70	39429.54
650.89	39220.65
651.09	39251.37
651.28	39683.49
651.47	39413.16
651.67	39413.16
651.86	39775.65
652.06	39007.66
652.25	39173.55
652.44	39232.94
652.64	38710.71
652.83	39347.62
653.02	38733.23
653.22	39153.07
653.41	39138.73
653.60	39101.87
653.80	39026.09
653.99	39011.76
654.18	39118.25
654.38	38903.21
654.57	39116.20
654.76	39138.73
654.96	39126.44
655.15	39151.02
655.34	39134.63
655.54	38890.93
655.73	38989.23
655.92	39347.62
656.12	39245.23
656.31	39509.41
656.50	38907.31
656.70	38901.17
656.89	38727.09
657.08	39493.03
657.28	38837.68
657.47	39052.72
657.66	39146.92
657.86	39099.82
658.05	39173.55
658.24	38997.42
658.43	39108.01
658.63	39228.84
658.82	39390.63
659.01	38931.89
659.21	39202.22
659.40	39126.44
659.59	39116.20
659.79	39007.66
659.98	39331.24
660.17	39144.87
660.36	38835.63
660.56	39001.52
660.75	38858.16
660.94	38919.60
661.14	39097.77
661.33	39169.45
661.52	38716.85
661.71	39413.16
661.91	38690.23
662.10	38938.03
662.29	39228.84
662.49	38600.12
662.68	38884.78
662.87	39419.30
663.06	38757.81
663.26	38722.99
663.45	38978.99
663.64	38645.17
663.83	38999.47
664.03	38888.88
664.22	38786.48
664.41	38770.10
664.60	38335.93
664.80	38800.82
664.99	38866.35
665.18	38389.17
665.37	38493.62
665.57	38892.97
665.76	38423.99
665.95	38790.58
666.14	38219.19
666.34	38507.96
666.53	39009.71
666.72	38147.51
666.91	38510.00
667.11	38569.40
667.30	38585.78
667.49	38319.54
667.68	38458.81
667.87	38380.98
668.07	38360.50
668.26	38297.02
668.45	38346.17
668.64	38057.40
668.84	38716.85
669.03	38409.65
669.22	38106.55
669.41	38249.91
669.60	38309.30
669.80	38106.55
669.99	38579.64
670.18	38190.52
670.37	37942.72
670.57	38608.31
670.76	38000.06
670.95	38665.65
671.14	38229.43
671.33	37932.48
671.53	38319.54
671.72	38282.68
671.91	38143.42
672.10	37995.96
672.29	37952.96
672.48	37754.30
672.68	38303.16
672.87	38010.30
673.06	37916.09
673.25	37838.27
673.44	37836.22
673.64	37631.43
673.83	37942.72
674.02	37809.60
674.21	37893.57
674.40	38139.32
674.59	37330.37
674.79	37998.01
674.98	37840.32
675.17	38020.54
675.36	37825.98
675.55	38118.84
675.74	37627.33
675.94	37785.02
676.13	37752.26
676.32	37459.40
676.51	38086.07
676.70	37772.74
676.89	37711.30
677.08	37744.06
677.28	37291.46
677.47	37723.58
677.66	37971.39
677.85	37606.85
678.04	37541.32
678.23	37846.46
678.42	37387.72
678.62	37647.81
678.81	37680.58
679.00	37170.63
679.19	37707.20
679.38	37457.35
679.57	37436.87
679.76	37203.40
679.96	37465.54
680.15	37320.13
680.34	37381.57
680.53	37395.91
680.72	37572.03
680.91	37492.16
681.10	37289.42
681.29	37305.80
681.48	37057.99
681.68	37115.34
681.87	37426.63
682.06	37086.67
682.25	36806.09
682.44	37176.78
682.63	37066.19
682.82	36838.86
683.01	36998.60
683.20	36867.53
683.39	37199.30
683.59	36961.74
683.78	36748.75
683.97	36546.00
684.16	36482.52
684.35	36591.06
684.54	36670.93
684.73	36695.50
684.92	36959.69
685.11	36283.86
685.30	36468.18
685.49	36500.95
685.69	36382.16
685.88	36560.34
686.07	36134.36
686.26	36529.62
686.45	36396.50
686.64	36353.49
686.83	36359.64
687.02	36707.79
687.21	36468.18
687.40	36335.06
687.59	36386.26
687.78	36111.83
687.97	36380.12
688.16	36050.39
688.35	36347.35
688.54	36021.72
688.74	36326.87
688.93	36034.01
689.12	36117.98
689.31	36357.59
689.50	36482.52
689.69	35980.76
689.88	35438.05
690.07	35999.19
690.26	35569.12
690.45	36064.73
690.64	35780.06
690.83	35667.42
691.02	35526.11
691.21	35370.47
691.40	35782.11
691.59	35999.19
691.78	35845.60
691.97	35661.28
692.16	35747.29
692.35	35825.12
692.54	35362.28
692.73	35757.53
692.92	35667.42
693.11	35798.49
693.30	35411.43
693.49	35481.06
693.68	35493.35
693.87	35417.57
694.06	35470.82
694.25	35479.01
694.44	35274.21
694.63	35739.10
694.82	35603.94
695.01	35360.23
695.20	35352.04
695.39	34946.54
695.58	35139.05
695.77	35218.92
695.96	34881.00
696.15	35317.22
696.34	34889.20
696.53	34942.44
696.72	34807.28
696.91	34602.48
697.10	34842.09
697.29	34895.34
697.48	35096.04
697.67	34719.21
697.86	34448.88
698.05	34270.71
698.24	34891.24
698.43	34389.49
698.62	34743.79
698.81	34471.41
699.00	34838.00
699.19	34156.02
699.38	34549.23
699.57	34610.67
699.76	34604.53
699.95	34100.73
700.14	33897.98
700.32	34176.50
700.51	33986.04
700.70	34432.50
700.89	34553.33
701.08	34469.36
701.27	34278.90
701.46	34129.40
701.65	34061.82
701.84	33965.56
702.03	34008.57
702.22	33535.49
702.41	33857.02
702.60	33969.66
702.79	33990.14
702.98	33848.83
703.17	33805.82
703.35	33793.53
703.54	33631.74
703.73	33785.34
703.92	33703.42
704.11	34239.99
704.30	33689.09
704.49	33512.96
704.68	33750.52
704.87	33822.20
705.06	33402.37
705.25	33246.72
705.43	33586.69
705.62	33746.43
705.81	33527.30
706.00	33256.96
706.19	32990.73
706.38	33101.32
706.57	32785.93
706.76	32884.23
706.95	33287.68
707.14	33412.61
707.32	33261.06
707.51	32837.13
707.70	33318.40
707.89	33166.85
708.08	32962.06
708.27	33062.41
708.46	33238.53
708.65	32910.86
708.84	32982.54
709.02	32808.46
709.21	33007.11
709.40	33015.30
709.59	32931.34
709.78	32478.74
709.97	33023.50
710.16	32353.81
710.34	32554.51
710.53	31901.21
710.72	32364.05
710.91	32624.14
711.10	32362.00
711.29	32452.11
711.48	32493.07
711.66	32488.98
711.85	32372.24
712.04	32407.06
712.23	32695.82
712.42	32372.24
712.61	32161.30
712.80	32382.48
712.98	32310.80
713.17	32146.97
713.36	32046.62
713.55	31983.13
713.74	32030.23
713.93	31917.59
714.11	31921.69
714.30	31655.45
714.49	31911.45
714.68	31827.48
714.87	31938.07
715.06	31936.02
715.24	31620.64
715.43	31731.23
715.62	31575.58
715.81	31591.97
716.00	32042.52
716.18	31620.64
716.37	31526.43
716.56	31452.70
716.75	31733.28
716.94	31139.36
717.12	31475.23
717.31	31405.60
717.50	31280.67
717.69	31264.29
717.88	30877.22
718.06	31653.40
718.25	31407.65
718.44	31163.94
718.63	30981.67
718.82	31067.69
719.00	31391.26
719.19	31006.25
719.38	31307.30
719.57	30688.81
719.76	30635.56
719.94	30834.22
720.13	30740.01
720.32	30959.14
720.51	30420.53
720.69	30414.38
720.88	30750.25
721.07	30502.45
721.26	30256.69
721.44	30656.04
721.63	30209.59
721.82	30213.68
722.01	30047.80
722.20	30365.23
722.38	29955.64
722.57	30170.68
722.76	29982.26
722.95	29984.31
723.13	29830.71
723.32	29816.38
723.51	29820.47
723.70	29818.42
723.88	29740.60
724.07	29478.46
724.26	29699.64
724.44	29216.32
724.63	29335.10
724.82	29636.16
725.01	29515.33
725.19	29312.58
725.38	29519.42
725.57	29374.02
725.76	29298.24
725.94	28878.41
726.13	29367.87
726.32	29326.91
726.51	29023.81
726.69	29371.97
726.88	29443.65
727.07	29423.17
727.25	29316.67
727.44	29009.48
727.63	29328.96
727.82	29134.40
728.00	29124.16
728.19	28921.41
728.38	29294.14
728.56	28843.59
728.75	28997.19
728.94	28980.81
729.12	29081.16
729.31	29099.59
729.50	28919.37
729.69	29210.18
729.87	28960.33
730.06	28702.28
730.25	28892.74
730.43	29134.40
730.62	28872.26
730.81	28882.50
730.99	28788.30
731.18	28659.27
731.37	28843.59
731.55	28851.78
731.74	29091.40
731.93	28524.11
732.11	28696.14
732.30	28712.52
732.49	28268.11
732.67	28651.08
732.86	28614.22
733.05	28675.66
733.23	28294.74
733.42	28143.19
733.61	28429.90
733.79	28560.97
733.98	28393.04
734.17	28274.26
734.35	28227.15
734.54	28259.92
734.73	28532.30
734.91	28300.88
735.10	28390.99
735.29	28669.51
735.47	28167.76
735.66	28282.45
735.84	28096.08
736.03	27866.71
736.22	28048.98
736.40	27852.38
736.59	28071.51
736.78	28134.99
736.96	28028.50
737.15	27864.66
737.33	27938.39
737.52	27623.00
737.71	28061.27
737.89	27745.88
738.08	27620.95
738.27	27692.63
738.45	27752.02
738.64	27919.96
738.82	27879.00
739.01	27422.30
739.20	27760.22
739.38	27315.81
739.57	27729.50
739.75	27631.19
739.94	27545.18
740.13	27426.40
740.31	27426.40
740.50	27549.28
740.68	27635.29
740.87	27496.03
741.06	27481.69
741.24	27516.51
741.43	27262.56
741.61	27555.42
741.80	27434.59
741.99	27151.97
742.17	27199.07
742.36	27272.80
742.54	27145.83
742.73	27143.78
742.91	27375.20
743.10	27160.16
743.29	27418.21
743.47	26990.18
743.66	27276.90
743.84	27354.72
744.03	26904.17
744.21	26789.48
744.40	27164.26
744.59	27086.43
744.77	26648.17
744.96	26816.10
745.14	26977.89
745.33	27072.10
745.51	27072.10
745.70	27123.30
745.88	26715.75
746.07	26918.50
746.26	26551.91
746.44	26879.59
746.63	26916.45
746.81	26457.71
747.00	26394.22
747.18	26545.77
747.37	26459.76
747.55	26560.11
747.74	26760.81
747.92	26605.16
748.11	26400.37
748.29	26330.73
748.48	26388.08
748.66	26259.06
748.85	26424.94
749.03	26461.80
749.22	26302.06
749.41	25892.47
749.59	26123.89
749.78	26048.11
749.96	25855.61
750.15	26017.40
750.33	25939.57
750.52	26009.20
750.70	26130.03
750.89	26056.31
751.07	25970.29
751.26	26119.79
751.44	25970.29
751.63	25902.71
751.81	25734.78
752.00	25626.23
752.18	26132.08
752.37	25736.82
752.55	25929.33
752.74	25761.40
752.92	26099.31
753.10	25386.62
753.29	25726.58
753.47	25349.76
753.66	25493.12
753.84	25699.96
754.03	25396.86
754.21	25515.64
754.40	25450.11
754.58	25529.98
754.77	25376.38
754.95	25343.61
755.14	25366.14
755.32	25300.61
755.51	24934.02
755.69	25104.00
755.88	25419.39
756.06	25222.78
756.24	25083.52
756.43	25241.21
756.61	25130.62
756.80	25048.71
756.98	24940.16
757.17	25446.01
757.35	25243.26
757.54	24938.12
757.72	24903.30
757.90	25116.29
758.09	25007.75
758.27	25034.37
758.46	24745.61
758.64	24909.44
758.83	24958.60
759.01	25075.33
759.19	25120.38
759.38	24505.99
759.56	24925.83
759.75	25069.19
759.93	24800.90
760.12	24524.43
760.30	24739.46
760.48	24567.43
760.67	24469.13
760.85	24694.41
761.04	24669.83
761.22	24786.57
761.40	24247.95
761.59	24632.97
761.77	24014.48
761.96	24290.96
762.14	24596.10
762.32	24258.19
762.51	24440.46
762.69	24264.33
762.88	24276.62
763.06	24354.44
763.24	24127.12
763.43	24354.44
763.61	23996.05
763.80	24245.90
763.98	23936.66
764.16	24008.34
764.35	24094.35
764.53	23842.45
764.72	23817.88
764.90	24080.02
765.08	24098.45
765.27	24094.35
765.45	23658.14
765.63	23707.29
765.82	23815.83
766.00	23580.31
766.18	23924.37
766.37	23950.99
766.55	23600.79
766.74	24006.29
766.92	23586.46
767.10	23273.12
767.29	23989.91
767.47	23565.98
767.65	23596.70
767.84	23514.78
768.02	23586.46
768.20	23422.62
768.39	23516.83
768.57	23611.03
768.75	23166.62
768.94	23656.09
769.12	23439.00
769.30	23033.50
769.49	22873.76
769.67	23088.80
769.85	22896.29
770.04	23092.90
770.22	22824.61
770.40	23344.80
770.59	23357.08
770.77	23070.37
770.95	22791.84
771.14	22826.66
771.32	22668.97
771.50	22947.49
771.69	22773.41
771.87	23092.90
772.05	22927.01
772.24	22564.52
772.42	22703.78
772.60	22918.82
772.78	22668.97
772.97	22357.67
773.15	22937.25
773.33	22683.30
773.52	22357.67
773.70	22607.53
773.88	22541.99
774.07	22509.22
774.25	22384.30
774.43	22781.60
774.61	22501.03
774.80	22806.18
774.98	22353.58
775.16	22533.80
775.34	23099.04
775.53	22322.86
775.71	22677.16
775.89	22357.67
776.08	22382.25
776.26	22353.58
776.44	22472.36
776.62	22517.42
776.81	22789.80
776.99	22613.67
777.17	22599.34
777.35	22765.22
777.54	22843.04
777.72	22308.52
777.90	22412.97
778.08	22617.77
778.27	22550.18
778.45	22658.73
778.63	22886.05
778.81	22431.40
779.00	23119.52
779.18	22478.50
779.36	22959.78
779.54	22752.93
779.73	22619.81
779.91	22849.19
780.09	22888.10
780.27	22740.64
780.46	22877.86
780.64	22931.11
780.82	22673.06
781.00	22896.29
781.19	22675.11
781.37	23094.94
781.55	22290.09
781.73	23092.90
781.91	22695.59
782.10	22709.93
782.28	22767.27
782.46	22986.40
782.64	22720.17
782.82	22507.18
783.01	22671.01
783.19	22912.67
783.37	22730.41
783.55	22638.25
783.74	23037.60
783.92	22578.86
784.10	22963.87
784.28	22851.24
784.46	22640.29
784.64	22587.05
784.83	22855.33
785.01	22730.41
785.19	22697.64
785.37	22658.73
785.55	22677.16
785.74	22417.07
785.92	22472.36
786.10	22675.11
786.28	22503.08
786.46	22527.66
786.64	22253.23
786.83	22415.02
787.01	22423.21
787.19	22574.76
787.37	22318.76
787.55	22570.66
787.74	22126.25
787.92	22253.23
788.10	21911.22
788.28	22058.67
788.46	22179.50
788.64	22077.10
788.82	22384.30
789.01	22269.61
789.19	22265.52
789.37	22116.01
789.55	22081.20
789.73	21970.61
789.91	21941.94
790.09	21894.83
790.28	21921.46
790.46	21972.66
790.64	22173.36
790.82	21601.97
791.00	21696.18
791.18	21452.47
791.36	21915.31
791.55	21745.33
791.73	21577.40
791.91	21503.67
792.09	21487.29
792.27	21642.93
792.45	21534.39
792.63	21493.43
792.81	21249.72
793.00	21644.98
793.18	21237.44
793.36	21264.06
793.54	21130.94
793.72	21065.41
793.90	21049.02
794.08	21092.03
794.26	21116.61
794.44	20958.91
794.62	20864.71
794.81	21038.78
794.99	21085.89
795.17	20993.73
795.35	20885.19
795.53	20897.47
795.71	20915.90
795.89	20688.58
796.07	20545.22
796.25	20702.92
796.43	20295.37
796.61	20397.77
796.80	20575.94
796.98	20567.75
797.16	20547.27
797.34	20563.65
797.52	20487.88
797.70	20594.37
797.88	20365.00
798.06	20137.68
798.24	20246.22
798.42	20262.60
798.60	19943.12
798.78	19963.60
798.96	20033.23
799.14	19846.87
799.32	19939.02
799.51	19689.17
799.69	19850.96
799.87	19697.36
800.05	19742.42
800.23	19646.16
800.41	19685.08
800.59	19502.81
800.77	19457.75
800.95	19142.36
801.13	19353.30
801.31	19451.61
801.49	19547.86
801.67	19246.81
801.85	19218.14
802.03	19156.70
802.21	19123.93
802.39	19132.12
802.57	19011.29
802.75	19082.97
802.93	18892.51
803.11	18824.93
803.29	18759.39
803.47	18530.02
803.65	18759.39
803.83	18912.99
804.01	18482.92
804.19	18804.45
804.37	18532.07
804.55	18409.19
804.73	18613.99
804.91	18415.34
805.09	18593.51
805.27	18480.87
805.45	18392.81
805.63	18462.44
805.81	18437.86
805.99	18568.93
806.17	18519.78
806.35	18177.77
806.53	18194.15
806.71	18288.36
806.89	18061.04
807.07	17893.10
807.25	18155.24
807.43	17729.27
807.61	18231.02
807.79	17846.00
807.97	17809.14
808.15	17880.82
808.33	17651.44
808.51	17764.08
808.69	17833.71
808.87	17583.86
809.05	17555.19
809.23	17653.49
809.41	17407.73
809.59	17538.80
809.77	17590.00
809.95	17520.37
810.13	17288.95
810.31	17288.95
810.49	17471.22
810.67	17366.78
810.84	17514.23
811.02	17207.03
811.20	17118.97
811.38	17499.89
811.56	16987.90
811.74	17299.19
811.92	17135.35
812.10	16996.09
812.28	17067.77
812.46	17059.58
812.64	17067.77
812.82	17006.33
813.00	17094.40
813.18	16809.73
813.36	16652.03
813.53	16787.20
813.71	16709.38
813.89	16604.93
814.07	16416.52
814.25	16699.14
814.43	16416.52
814.61	16609.03
814.79	16439.05
814.97	16766.72
815.15	16430.85
815.33	16375.56
815.50	16307.98
815.68	16426.76
815.86	16598.79
816.04	16264.97
816.22	16236.30
816.40	16215.82
816.58	16164.62
816.76	16074.51
816.94	16162.57
817.11	16027.40
817.29	16168.71
817.47	16031.50
817.65	16164.62
817.83	15939.34
818.01	15738.64
818.19	16082.70
818.37	15968.01
818.54	15515.41
818.72	15978.25
818.90	15892.24
819.08	15709.97
819.26	15779.60
819.44	15931.15
819.62	15816.46
819.80	15656.72
819.97	15644.43
820.15	15519.51
820.33	15683.34
820.51	15425.30
820.69	15501.08
820.87	15521.56
821.05	15593.23
821.22	15269.66
821.40	15447.83
821.58	15496.98
821.76	15605.52
821.94	15122.20
822.12	15283.99
822.29	15417.11
822.47	15140.63
822.65	15318.81
822.83	15357.72
823.01	14966.56
823.19	15152.92
823.36	15255.32
823.54	15251.22
823.72	14858.01
823.90	15013.66
824.08	14837.53
824.25	15046.43
824.43	14694.18
824.61	14958.36
824.79	15060.76
824.97	14815.01
825.15	14847.77
825.32	14909.21
825.50	14835.49
825.68	14839.58
825.86	14892.83
826.04	14815.01
826.21	14604.07
826.39	14550.82
826.57	14741.28
826.75	14657.31
826.93	14339.88
827.10	14622.50
827.28	14624.54
827.46	14589.73
827.64	14399.27
827.81	14548.77
827.99	14593.83
828.17	14317.35
828.35	14493.47
828.53	14245.67
828.70	14356.26
828.88	14391.08
829.06	14415.65
829.24	14198.57
829.41	14198.57
829.59	14327.59
829.77	14247.72
829.95	14286.63
830.12	13983.53
830.30	14292.77
830.48	14290.73
830.66	14006.06
830.84	14305.06
831.01	14214.95
831.19	14284.58
831.37	14016.30
831.55	14087.98
831.72	13887.28
831.90	13725.49
832.08	13989.67
832.25	13909.80
832.43	13760.30
832.61	13713.20
832.79	13733.68
832.96	13913.90
833.14	13842.22
833.32	13825.84
833.50	13803.31
833.67	13641.52
833.85	13512.50
834.03	13453.11
834.20	13553.46
834.38	13752.11
834.56	13465.39
834.74	13799.21
834.91	13438.77
835.09	13524.79
835.27	13440.82
835.44	13555.51
835.62	13311.80
835.80	13430.58
835.98	13565.74
836.15	13363.00
836.33	13283.13
836.51	13354.80
836.68	13406.00
836.86	13176.63
837.04	13258.55
837.21	13326.13
837.39	13246.26
837.57	13346.61
837.75	13195.06
837.92	13197.11
838.10	13082.42
838.28	13029.18
838.45	13326.13
838.63	13043.51
838.81	12949.31
838.98	12980.03
839.16	13229.88
839.34	12896.06
839.51	12855.10
839.69	12812.09
839.87	12793.66
840.04	12830.52
840.22	12672.83
840.40	13000.51
840.57	12834.62
840.75	13066.04
840.93	12934.97
841.10	12721.98
841.28	12863.29
841.46	12820.28
841.63	12799.80
841.81	12879.68
841.98	12789.56
842.16	12808.00
842.34	12771.13
842.51	12584.77
842.69	12648.26
842.87	12511.04
843.04	12668.73
843.22	12371.78
843.40	12535.62
843.57	12496.71
843.75	12803.90
843.92	12840.76
844.10	12572.48
844.28	12676.93
844.45	12412.74
844.63	12625.73
844.81	12238.66
844.98	12517.18
845.16	12250.95
845.33	12353.35
845.51	12425.03
845.69	12181.32
845.86	12609.34
846.04	12103.50
846.21	12203.85
846.39	12080.97
846.57	12107.59
846.74	12195.65
846.92	12216.13
847.09	12093.26
847.27	12148.55
847.45	12072.78
847.62	12371.78
847.80	12191.56
847.97	12119.88
848.15	11913.03
848.32	12013.38
848.50	11972.43
848.68	11908.94
848.85	12148.55
849.03	11970.38
849.20	12021.58
849.38	12021.58
849.56	12040.01
849.73	12005.19
849.91	11820.88
850.08	11890.51
850.26	11968.33
850.43	11863.88
850.61	11974.47
850.78	11794.25
850.96	11806.54
851.14	11843.40
851.31	11738.96
851.49	11568.98
851.66	11698.00
851.84	11579.22
852.01	11865.93
852.19	11667.28
852.36	11624.27
852.54	11583.31
852.71	11769.68
852.89	11525.97
853.07	11525.97
853.24	11466.58
853.42	11489.10
853.59	11446.10
853.77	11607.89
853.94	11530.06
854.12	11544.40
854.29	11339.60
854.47	11472.72
854.64	11388.75
854.82	11593.55
854.99	11335.51
855.17	11317.08
855.34	11439.95
855.52	11421.52
855.69	11355.99
855.87	11190.10
856.04	11323.22
856.22	11315.03
856.39	11159.38
856.57	11401.04
856.74	11183.96
856.92	11298.64
857.09	11206.48
857.27	11192.15
857.44	11401.04
857.62	11132.76
857.79	10985.30
857.97	11128.66
858.14	11177.81
858.32	11163.48
858.49	11102.04
858.67	11069.27
858.84	11083.61
859.02	11179.86
859.19	10923.87
859.37	10823.51
859.54	10905.43
859.72	10966.87
859.89	10856.28
860.06	10930.01
860.24	10727.26
860.41	10813.28
860.59	10753.88
860.76	10774.36
860.94	10921.82
861.11	10633.05
861.29	10733.40
861.46	10819.42
861.64	10735.45
861.81	10610.53
861.98	10544.99
862.16	10674.01
862.33	10516.32
862.51	10729.31
862.68	10612.57
862.86	10547.04
863.03	10690.40
863.21	10481.50
863.38	10581.85
863.55	10557.28
863.73	10592.09
863.90	10420.06
864.08	10590.05
864.25	10532.70
864.43	10299.23
864.60	10532.70
864.77	10501.98
864.95	10475.36
865.12	10352.48
865.30	10336.10
865.47	10348.39
865.64	10395.49
865.82	10186.60
865.99	10272.61
866.17	10481.50
866.34	10358.63
866.51	10063.72
866.69	10311.52
866.86	10166.12
867.04	10323.81
867.21	10301.28
867.38	10211.17
867.56	10014.57
867.73	10119.01
867.91	10264.42
868.08	10127.21
868.25	10086.25
868.43	10104.68
868.60	10008.42
868.78	9793.39
868.95	10033.00
869.12	9910.12
869.30	9774.95
869.47	9926.50
869.64	9944.94
869.82	9840.49
869.99	9793.39
870.16	9777.00
870.34	9768.81
870.51	9858.92
870.69	9688.94
870.86	9820.01
871.03	9748.33
871.21	9586.54
871.38	9930.60
871.55	9664.36
871.73	9650.03
871.90	9609.07
872.07	9719.66
872.25	9619.31
872.42	9521.01
872.59	9686.89
872.77	9516.91
872.94	9422.70
873.11	9404.27
873.29	9357.17
873.46	9166.71
873.63	9242.48
873.81	9627.50
873.98	9160.56
874.15	9287.54
874.33	9082.74
874.50	9406.32
874.67	9222.00
874.85	9322.35
875.02	9228.15
875.19	9103.22
875.37	9142.13
875.54	9228.15
875.71	9211.76
875.88	9088.89
876.06	9095.03
876.23	9056.12
876.40	9064.31
876.58	9074.55
876.75	9121.65
876.92	9160.56
877.10	9052.02
877.27	8966.01
877.44	9080.69
877.61	8925.05
877.79	8705.92
877.96	8882.04
878.13	8839.03
878.31	8861.56
878.48	8750.97
878.65	8818.55
878.82	8605.56
879.00	8728.44
879.17	8681.34
879.34	8798.07
879.51	8843.13
879.69	8648.57
879.86	8628.09
880.03	8597.37
880.21	8546.17
880.38	8644.48
880.55	8626.04
880.72	8386.43
880.90	8574.85
881.07	8644.48
881.24	8603.52
881.41	8712.06
881.59	8599.42
881.76	8515.45
881.93	8413.06
882.10	8449.92
882.28	8529.79
882.45	8435.58
882.62	8474.49
882.79	8474.49
882.96	8273.79
883.14	8468.35
883.31	8458.11
883.48	8464.25
883.65	8382.34
883.83	8380.29
884.00	8329.09
884.17	8505.21
884.34	8353.66
884.51	8304.51
884.69	8298.37
884.86	8296.32
885.03	8368.00
885.20	8312.71
885.38	8271.75
885.55	8314.75
885.72	8345.47
885.89	8163.20
886.06	8286.08
886.24	8150.92
886.41	8038.28
886.58	8349.57
886.75	8333.18
886.92	8085.38
887.10	8263.55
887.27	8183.68
887.44	8144.77
887.61	8130.44
887.78	8179.59
887.95	8306.56
888.13	8099.72
888.30	8032.13
888.47	8066.95
888.64	7913.35
888.81	7950.21
888.99	7968.65
889.16	8001.41
889.33	8050.57
889.50	7997.32
889.67	8099.72
889.84	8017.80
890.01	7976.84
890.19	7989.13
890.36	7751.56
890.53	7712.65
890.70	7866.25
890.87	7864.20
891.04	7999.37
891.22	7673.74
891.39	7821.19
891.56	7659.40
891.73	7913.35
891.90	7675.79
892.07	7663.50
892.24	7802.76
892.42	7679.88
892.59	7722.89
892.76	7593.87
892.93	7626.64
893.10	7708.55
893.27	7759.75
893.44	7618.44
893.61	7659.40
893.79	7669.64
893.96	7630.73
894.13	7604.11
894.30	7606.16
894.47	7632.78
894.64	7657.36
894.81	7477.13
894.98	7686.03
895.15	7733.13
895.33	7593.87
895.50	7636.88
895.67	7681.93
895.84	7606.16
896.01	7399.31
896.18	7665.55
896.35	7624.59
896.52	7583.63
896.69	7481.23
896.86	7489.42
897.04	7645.07
897.21	7620.49
897.38	7606.16
897.55	7446.41
897.72	7540.62
897.89	7423.89
898.06	7591.82
898.23	7571.34
898.40	7348.11
898.57	7397.26
898.74	7536.52
898.91	7546.76
899.08	7303.06
899.26	7434.13
899.43	7620.49
899.60	7495.57
899.77	7499.66
899.94	7348.11
900.11	7540.62
900.28	7548.81
900.45	7421.84
900.62	7305.10
900.79	7403.41
900.96	7225.23
901.13	7286.67
901.30	7337.87
901.47	7171.99
901.64	7327.63
901.81	7243.67
901.98	7253.91
902.15	7301.01
902.32	7405.46
902.49	7208.85
902.66	7307.15
902.83	7325.58
903.01	7251.86
903.18	7202.71
903.35	7438.22
903.52	7387.02
903.69	7309.20
903.86	7382.93
904.03	7294.86
904.20	7325.58
904.37	7497.61
904.54	7210.90
904.71	7266.19
904.88	7278.48
905.05	7149.46
905.22	7452.56
905.39	7210.90
905.56	7270.29
905.73	7118.74
905.90	7245.71
906.07	7258.00
906.24	7405.46
906.41	7221.14
906.58	7217.04
906.75	7348.11
906.92	7258.00
907.09	7145.36
907.26	7350.16
907.43	7100.31
907.60	7258.00
907.77	7135.12
907.93	7153.55
908.10	7167.89
908.27	7229.33
908.44	7141.27
908.61	7171.99
908.78	6981.53
908.95	7092.12
909.12	7208.85
909.29	7151.51
909.46	7085.97
909.63	7135.12
909.80	7161.75
909.97	7096.21
910.14	7075.73
910.31	7122.84
910.48	6858.65
910.65	7063.44
910.82	7042.96
910.99	6973.33
911.16	6911.89
911.33	6971.29
911.50	7085.97
911.66	7081.88
911.83	6995.86
912.00	6877.08
912.17	6903.70
912.34	6946.71
912.51	6950.81
912.68	6981.53
912.85	6868.89
913.02	6926.23
913.19	6991.77
913.36	6971.29
913.53	6915.99
913.70	6842.26
913.86	6719.39
914.03	6909.85
914.20	6762.39
914.37	6932.37
914.54	6686.62
914.71	6780.82
914.88	6860.70
915.05	6823.83
915.22	6748.06
915.39	6743.96
915.55	6692.76
915.72	6784.92
915.89	6612.89
916.06	6623.13
916.23	6614.94
916.40	6631.32
916.57	6653.85
916.74	6631.32
916.91	6700.95
917.07	6434.72
917.24	6463.39
917.41	6524.83
917.58	6621.08
917.75	6477.73
917.92	6410.14
918.09	6424.48
918.26	6328.22
918.42	6354.85
918.59	6440.86
918.76	6279.07
918.93	6330.27
919.10	6231.97
919.27	6463.39
919.44	6348.70
919.60	6277.02
919.77	6358.94
919.94	6404.00
920.11	6182.82
920.28	6301.60
920.45	6176.67
920.61	6193.06
920.78	6160.29
920.95	6223.78
921.12	6254.50
921.29	6074.28
921.46	6027.17
921.62	5990.31
921.79	6031.27
921.96	6031.27
922.13	5988.26
922.30	5922.73
922.47	5971.88
922.63	5969.83
922.80	5877.67
922.97	5808.04
923.14	5762.98
923.31	5885.86
923.47	5754.79
923.64	5982.12
923.81	5838.76
923.98	5869.48
924.15	5758.89
924.32	5658.54
924.48	5717.93
924.65	5748.65
924.82	5814.18
924.99	5447.60
925.15	5601.19
925.32	5556.14
925.49	5451.69
925.66	5605.29
925.83	5488.56
925.99	5437.36
926.16	5607.34
926.33	5447.60
926.50	5318.57
926.67	5476.27
926.83	5414.83
927.00	5517.23
927.17	5478.32
927.34	5277.62
927.50	5384.11
927.67	5437.36
927.84	5269.42
928.01	5228.46
928.17	5302.19
928.34	5345.20
928.51	5205.94
928.68	5267.38
928.84	5289.90
929.01	5228.46
929.18	5158.83
929.35	5222.32
929.51	5160.88
929.68	5144.50
929.85	5111.73
930.02	4986.80
930.18	4982.71
930.35	4954.04
930.52	5035.96
930.69	5085.11
930.85	5011.38
931.02	4884.41
931.19	4937.65
931.36	4865.97
931.52	4874.17
931.69	4892.60
931.86	4865.97
932.02	4669.37
932.19	4724.66
932.36	4691.90
932.53	4712.38
932.69	4704.18
932.86	4784.06
933.03	4620.22
933.19	4585.40
933.36	4667.32
933.53	4718.52
933.70	4542.39
933.86	4614.07
934.03	4501.44
934.20	4487.10
934.36	4714.42
934.53	4472.76
934.70	4411.32
934.86	4491.20
935.03	4392.89
935.20	4284.35
935.36	4356.03
935.53	4446.14
935.70	4253.63
935.86	4306.88
936.03	4140.99
936.20	4212.67
936.36	4126.66
936.53	4116.42
936.70	4196.29
936.86	4235.20
937.03	4085.70
937.20	4024.26
937.36	3936.20
937.53	3790.79
937.70	3932.10
937.86	3932.10
938.03	3862.47
938.20	3809.22
938.36	3798.98
938.53	3755.97
938.70	3762.12
938.86	3676.10
939.03	3737.54
939.20	3688.39
939.36	3723.21
939.53	3602.38
939.70	3694.54
939.86	3459.02
940.03	3514.31
940.19	3491.79
940.36	3528.65
940.53	3442.64
940.69	3413.96
940.86	3373.00
941.03	3295.18
941.19	3330.00
941.36	3280.85
941.52	3303.37
941.69	3297.23
941.86	3301.33
942.02	3207.12
942.19	3180.50
942.35	3231.69
942.52	3098.58
942.69	3141.58
942.85	3133.39
943.02	3076.05
943.18	3012.56
943.35	3065.81
943.52	2965.46
943.68	3057.62
943.85	2983.89
944.01	3000.27
944.18	2926.55
944.35	3010.51
944.51	3043.28
944.68	2844.63
944.84	2885.59
945.01	2910.16
945.17	2879.44
945.34	2985.94
945.51	2828.24
945.67	2889.68
945.84	2934.74
946.00	2881.49
946.17	2826.20
946.33	2846.68
946.50	2861.01
946.67	2775.00
946.83	2863.06
947.00	2756.57
947.16	2775.00
947.33	2830.29
947.49	2914.26
947.66	2752.47
947.82	2764.76
947.99	2719.70
948.16	2838.48
948.32	2760.66
948.49	2748.37
948.65	2754.52
948.82	2775.00
948.98	2746.33
949.15	2639.83
949.31	2799.57
949.48	2736.09
949.64	2680.79
949.81	2746.33
949.97	2717.65
950.14	2793.43
950.30	2699.22
950.47	2822.10
950.63	2693.08
950.80	2731.99
950.96	2707.41
951.13	2768.85
951.30	2729.94
951.46	2750.42
951.63	2756.57
951.79	2734.04
951.96	2744.28
952.12	2729.94
952.29	2705.37
952.45	2709.46
952.62	2750.42
952.78	2725.85
952.94	2738.13
953.11	2684.89
953.27	2680.79
953.44	2740.18
953.60	2738.13
953.77	2713.56
953.93	2736.09
954.10	2682.84
954.26	2648.02
954.43	2736.09
954.59	2830.29
954.76	2797.53
954.92	2688.98
955.09	2557.91
955.25	2637.78
955.42	2670.55
955.58	2754.52
955.75	2688.98
955.91	2641.88
956.07	2580.44
956.24	2611.16
956.40	2682.84
956.57	2691.03
956.73	2650.07
956.90	2578.39
957.06	2600.92
957.23	2570.20
957.39	2742.23
957.56	2670.55
957.72	2625.50
957.88	2596.82
958.05	2760.66
958.21	2744.28
958.38	2738.13
958.54	2623.45
958.71	2719.70
958.87	2686.94
959.03	2578.39
959.20	2656.22
959.36	2623.45
959.53	2586.58
959.69	2564.06
959.85	2639.83
960.02	2523.10
960.18	2619.35
960.35	2648.02
960.51	2631.64
960.68	2619.35
960.84	2627.54
961.00	2580.44
961.17	2576.34
961.33	2703.32
961.50	2572.25
961.66	2617.30
961.82	2580.44
961.99	2680.79
962.15	2668.50
962.31	2557.91
962.48	2643.93
962.64	2529.24
962.81	2543.58
962.97	2613.21
963.13	2504.67
963.30	2435.03
963.46	2504.67
963.62	2623.45
963.79	2574.30
963.95	2572.25
964.12	2572.25
964.28	2637.78
964.44	2525.15
964.61	2574.30
964.77	2525.15
964.93	2607.06
965.10	2545.63
965.26	2428.89
965.42	2611.16
965.59	2619.35
965.75	2498.52
965.92	2484.19
966.08	2555.86
966.24	2531.29
966.41	2480.09
966.57	2486.23
966.73	2494.43
966.90	2555.86
967.06	2428.89
967.22	2455.51
967.39	2494.43
967.55	2510.81
967.71	2432.99
967.88	2482.14
968.04	2500.57
968.20	2531.29
968.37	2430.94
968.53	2408.41
968.69	2463.71
968.85	2494.43
969.02	2447.32
969.18	2525.15
969.34	2500.57
969.51	2504.67
969.67	2459.61
969.83	2367.45
970.00	2494.43
970.16	2469.85
970.32	2498.52
970.48	2457.56
970.65	2494.43
970.81	2424.80
970.97	2480.09
971.14	2308.06
971.30	2449.37
971.46	2414.56
971.63	2488.28
971.79	2441.18
971.95	2441.18
972.11	2365.40
972.28	2432.99
972.44	2383.84
972.60	2275.29
972.76	2410.46
972.93	2402.27
973.09	2385.88
973.25	2420.70
973.42	2375.64
973.58	2404.32
973.74	2357.21
973.90	2504.67
974.07	2406.36
974.23	2342.88
974.39	2369.50
974.55	2322.40
974.72	2420.70
974.88	2293.72
975.04	2424.80
975.20	2349.02
975.37	2439.13
975.53	2318.30
975.69	2381.79
975.85	2324.44
976.01	2381.79
976.18	2312.16
976.34	2275.29
976.50	2260.96
976.66	2310.11
976.83	2346.97
976.99	2326.49
977.15	2316.25
977.31	2277.34
977.47	2314.20
977.64	2287.58
977.80	2293.72
977.96	2336.73
978.12	2367.45
978.29	2281.44
978.45	2275.29
978.61	2289.63
978.77	2322.40
978.93	2342.88
979.10	2267.10
979.26	2308.06
979.42	2265.05
979.58	2211.81
979.74	2267.10
979.91	2289.63
980.07	2310.11
980.23	2254.81
980.39	2336.73
980.55	2148.32
980.71	2217.95
980.88	2222.05
981.04	2306.01
981.20	2174.94
981.36	2314.20
981.52	2222.05
981.68	2205.66
981.85	2246.62
982.01	2123.74
982.17	2213.85
982.33	2248.67
982.49	2271.20
982.65	2168.80
982.82	2281.44
982.98	2220.00
983.14	2156.51
983.30	2201.57
983.46	2234.33
983.62	2222.05
983.79	2191.33
983.95	2265.05
984.11	2152.42
984.27	2189.28
984.43	2170.85
984.59	2220.00
984.75	2246.62
984.91	2217.95
985.08	2215.90
985.24	2123.74
985.40	2144.22
985.56	2191.33
985.72	2123.74
985.88	2170.85
986.04	2277.34
986.20	2170.85
986.37	2146.27
986.53	2138.08
986.69	2166.75
986.85	2211.81
987.01	2148.32
987.17	2119.65
987.33	2082.78
987.49	2090.98
987.65	2140.13
987.82	2140.13
987.98	2140.13
988.14	2162.66
988.30	2213.85
988.46	2179.04
988.62	2119.65
988.78	2220.00
988.94	2119.65
989.10	2119.65
989.26	2099.17
989.42	2039.78
989.59	2136.03
989.75	2041.82
989.91	2107.36
990.07	2015.20
990.23	2127.84
990.39	2168.80
990.55	2129.89
990.71	2086.88
990.87	2144.22
991.03	2113.50
991.19	2097.12
991.35	2097.12
991.51	2131.94
991.67	2060.26
991.83	2064.35
992.00	2090.98
992.16	2047.97
992.32	2121.70
992.48	2138.08
992.64	2123.74
992.80	2070.50
992.96	2033.63
993.12	2052.06
993.28	2047.97
993.44	2080.74
993.60	2021.35
993.76	2035.68
993.92	2056.16
994.08	2090.98
994.24	2045.92
994.40	2113.50
994.56	2090.98
994.72	1996.77
994.88	1976.29
995.04	2074.59
995.20	2007.01
995.36	2033.63
995.52	2000.87
995.68	2023.39
995.84	1982.43
996.00	2103.26
996.16	2029.54
996.32	2027.49
996.48	2070.50
996.64	2080.74
996.80	2045.92
996.96	1990.63
997.12	1937.38
997.28	1978.34
997.44	2004.96
997.60	2027.49
997.76	2050.02
997.92	2054.11
998.08	1996.77
998.24	1947.62
998.40	1957.86
998.56	1992.67
998.72	1994.72
998.88	1925.09
999.04	2000.87
999.20	2023.39
999.36	1947.62
999.52	2017.25
999.68	1925.09
999.84	1998.82
1000.00	2050.02
1000.16	2007.01
1000.32	1978.34
1000.48	2041.82
1000.64	1947.62
1000.80	1882.08
1000.95	1939.43
1001.11	1914.85
1001.27	1884.13
1001.43	1986.53
1001.59	1894.37
1001.75	1957.86
1001.91	1945.57
1002.07	1980.39
1002.23	1939.43
1002.39	1873.89
1002.55	1986.53
1002.71	1968.10
1002.87	1859.56
1003.03	1832.93
1003.19	1966.05
1003.34	1933.28
1003.50	1908.71
1003.66	1984.48
1003.82	1929.19
1003.98	1937.38
1004.14	1888.23
1004.30	1900.52
1004.46	1935.33
1004.62	1916.90
1004.78	1880.04
1004.94	1929.19
1005.09	1906.66
1005.25	1939.43
1005.41	1900.52
1005.57	1875.94
1005.73	1822.69
1005.89	1916.90
1006.05	1949.67
1006.21	1923.04
1006.37	1908.71
1006.52	1894.37
1006.68	1875.94
1006.84	1867.75
1007.00	1867.75
1007.16	1888.23
1007.32	1859.56
1007.48	1888.23
1007.64	1923.04
1007.79	1880.04
1007.95	1851.36
1008.11	1873.89
1008.27	1818.60
1008.43	1859.56
1008.59	1880.04
1008.75	1861.60
1008.91	1873.89
1009.06	1892.32
1009.22	1912.80
1009.38	1839.08
1009.54	1783.78
1009.70	1779.68
1009.86	1935.33
1010.01	1865.70
1010.17	1841.12
1010.33	1849.32
1010.49	1806.31
1010.65	1886.18
1010.81	1783.78
1010.96	1910.75
1011.12	1875.94
1011.28	1794.02
1011.44	1884.13
1011.60	1857.51
1011.76	1794.02
1011.91	1847.27
1012.07	1798.12
1012.23	1777.64
1012.39	1818.60
1012.55	1806.31
1012.71	1820.64
1012.86	1763.30
1013.02	1834.98
1013.18	1773.54
1013.34	1837.03
1013.50	1828.84
1013.65	1834.98
1013.81	1771.49
1013.97	1830.88
1014.13	1779.68
1014.29	1798.12
1014.44	1890.28
1014.60	1794.02
1014.76	1830.88
1014.92	1783.78
1015.07	1837.03
1015.23	1798.12
1015.39	1777.64
1015.55	1773.54
1015.71	1832.93
1015.86	1804.26
1016.02	1748.97
1016.18	1779.68
1016.34	1804.26
1016.49	1808.36
1016.65	1837.03
1016.81	1787.88
1016.97	1769.44
1017.12	1742.82
1017.28	1810.40
1017.44	1818.60
1017.60	1761.25
1017.75	1818.60
1017.91	1820.64
1018.07	1798.12
1018.23	1810.40
1018.38	1781.73
1018.54	1763.30
1018.70	1841.12
1018.86	1681.38
1019.01	1689.57
1019.17	1781.73
1019.33	1828.84
1019.49	1763.30
1019.64	1734.63
1019.80	1734.63
1019.96	1744.87
1020.12	1794.02
1020.27	1744.87
1020.43	1794.02
1020.59	1703.91
1020.74	1785.83
1020.90	1722.34
1021.06	1720.29
1021.22	1763.30
1021.37	1771.49
1021.53	1732.58
1021.69	1705.96
1021.84	1693.67
1022.00	1675.24
1022.16	1693.67
1022.31	1705.96
1022.47	1789.92
1022.63	1800.16
1022.79	1722.34
1022.94	1662.95
1023.10	1787.88
1023.26	1755.11
1023.41	1687.53
1023.57	1751.01
1023.73	1722.34
1023.88	1708.01
1024.04	1712.10
1024.20	1724.39
1024.35	1673.19
1024.51	1667.05
1024.67	1660.90
1024.82	1777.64
1024.98	1705.96
1025.14	1746.92
1025.29	1662.95
1025.45	1708.01
1025.61	1677.29
1025.76	1683.43
1025.92	1691.62
1026.08	1673.19
1026.23	1705.96
1026.39	1712.10
1026.55	1738.73
1026.70	1724.39
1026.86	1757.16
1027.02	1671.14
1027.17	1726.44
1027.33	1740.77
1027.48	1736.68
1027.64	1660.90
1027.80	1644.52
1027.95	1769.44
1028.11	1667.05
1028.27	1714.15
1028.42	1644.52
1028.58	1677.29
1028.73	1689.57
1028.89	1662.95
1029.05	1759.21
1029.20	1683.43
>>>>>End Processed Spectral Data<<<<<
